   2.4324324e-01  -4.5945946e-01   1.3513513e-01  -3.2432432e-01  -3.2432432e-01   5.4054054e-01   5.1351351e-01  -6.2162162e-01  -3.5135135e-01  -3.2432432e-01  -8.6486487e-01  -6.2162162e-01  -6.2162162e-01  -1.0000000e+00   1.3513513e-01   1.3513513e-01  -1.0000000e+00   2.7027027e-02   2.1621622e-01  -6.2162162e-01  -6.2162162e-01  -6.2162162e-01  -3.2432432e-01  -3.2432432e-01  -3.2432432e-01  -3.2432432e-01  -3.2432432e-01  -3.2432432e-01  -5.4054054e-01   8.6486487e-01  -7.2972973e-01  -1.0000000e+00  -1.0000000e+00  -3.7837838e-01   1.6216216e-01   1.6216216e-01  -6.7567568e-01  -6.7567568e-01  -6.7567568e-01  -6.7567568e-01  -6.7567568e-01  -4.0540540e-01  -5.1351351e-01  -6.4864865e-01  -6.4864865e-01  -6.4864865e-01  -5.4054054e-02  -5.4054054e-01   2.7027027e-01  -5.6756757e-01  -4.3243243e-01  -4.3243243e-01  -5.6756757e-01   8.1081081e-02  -1.3513513e-01  -5.1351351e-01  -5.1351351e-01   1.3513513e-01  -2.7027027e-02   4.0540540e-01  -2.4324324e-01  -2.4324324e-01  -2.4324324e-01   1.3513513e-01   5.4054054e-01  -1.0000000e+00  -3.2432432e-01  -1.0810811e-01   5.1351351e-01   4.8648649e-01  -1.0000000e+00  -1.0000000e+00  -3.7837838e-01  -3.7837838e-01  -3.7837838e-01  -3.7837838e-01  -2.7027027e-02  -2.7027027e-02  -2.7027027e-02   8.6486487e-01   8.6486487e-01   8.6486487e-01   2.4324324e-01   3.7837838e-01   5.4054054e-01   5.4054054e-01   6.7567568e-01   6.7567568e-01   6.7567568e-01   6.7567568e-01   6.7567568e-01   3.5135135e-01   3.5135135e-01   3.5135135e-01   5.6756757e-01   5.6756757e-01   5.6756757e-01   5.6756757e-01   2.9729730e-01   2.9729730e-01   2.9729730e-01   4.5945946e-01  -8.1081081e-02  -8.1081081e-02  -8.1081081e-02   3.5135135e-01   3.5135135e-01   3.5135135e-01   3.5135135e-01   4.8648649e-01   4.8648649e-01   5.9459460e-01   5.9459460e-01   5.9459460e-01   7.0270270e-01   7.0270270e-01   7.0270270e-01   5.1351351e-01   5.1351351e-01   5.1351351e-01   3.7837838e-01   3.7837838e-01   3.7837838e-01   2.9729730e-01   2.9729730e-01   2.9729730e-01   2.9729730e-01   8.1081081e-02   8.1081081e-02   8.1081081e-02   2.1621622e-01   2.1621622e-01   2.1621622e-01   1.3513513e-01   1.3513513e-01   1.3513513e-01   4.8648649e-01   4.8648649e-01   4.8648649e-01  -1.6216216e-01  -1.6216216e-01  -1.6216216e-01   5.4054054e-01   5.4054054e-01   5.4054054e-01   5.4054054e-01   8.1081081e-02   8.1081081e-02   8.1081081e-02   8.1081081e-02   7.2972973e-01   7.2972973e-01   7.2972973e-01   6.7567568e-01   6.7567568e-01   1.0810811e-01   1.0810811e-01   1.0810811e-01   0.0000000e+00   0.0000000e+00   0.0000000e+00   0.0000000e+00   0.0000000e+00   0.0000000e+00   3.7837838e-01   3.7837838e-01   3.7837838e-01   3.7837838e-01   4.3243243e-01   4.3243243e-01   4.3243243e-01   4.3243243e-01   0.0000000e+00   0.0000000e+00   0.0000000e+00   0.0000000e+00   2.9729730e-01   2.9729730e-01   2.9729730e-01   2.9729730e-01   0.0000000e+00   0.0000000e+00   0.0000000e+00   0.0000000e+00  -2.4324324e-01  -2.4324324e-01  -2.4324324e-01  -2.4324324e-01   7.0270270e-01   7.0270270e-01   7.0270270e-01   2.7027027e-02   2.7027027e-02  -3.5135135e-01  -3.5135135e-01  -3.5135135e-01   3.2432432e-01   3.2432432e-01   3.2432432e-01   5.4054054e-02   5.4054054e-02   5.4054054e-02   5.4054054e-02   4.3243243e-01   4.3243243e-01   4.3243243e-01   4.3243243e-01   0.0000000e+00   0.0000000e+00   0.0000000e+00   0.0000000e+00   8.1081081e-02   8.1081081e-02   8.1081081e-02   4.5945946e-01   4.5945946e-01   4.5945946e-01   4.5945946e-01  -1.3513513e-01  -1.3513513e-01  -1.3513513e-01  -1.3513513e-01   4.0540540e-01   4.0540540e-01   4.0540540e-01   4.0540540e-01   1.0000000e+00   1.0000000e+00   1.0000000e+00   4.0540540e-01   4.0540540e-01   4.0540540e-01   4.0540540e-01  -1.8918919e-01  -1.8918919e-01  -1.8918919e-01  -1.8918919e-01  -1.3513513e-01  -1.3513513e-01  -1.3513513e-01  -1.3513513e-01   1.6216216e-01   1.6216216e-01   1.6216216e-01   1.6216216e-01  -1.3513513e-01   4.5945946e-01  -5.4054054e-02  -5.4054054e-02  -5.4054054e-02  -5.4054054e-02   4.5945946e-01  -2.7027027e-02   1.0810811e-01   8.1081081e-02   3.7837838e-01   1.3513513e-01  -3.2432432e-01   5.1351351e-01   3.5135135e-01   6.2162162e-01   8.1081081e-02   8.1081081e-02   8.1081081e-02   8.1081081e-02   5.1351351e-01   5.1351351e-01   5.1351351e-01   2.7027027e-01   2.7027027e-01   2.7027027e-01  -1.3513513e-01   3.5135135e-01   3.5135135e-01   3.5135135e-01   3.5135135e-01   8.1081081e-02   8.3783784e-01  -2.4324324e-01  -2.4324324e-01  -2.4324324e-01  -2.4324324e-01   3.7837838e-01   3.7837838e-01   3.7837838e-01   3.7837838e-01   8.3783784e-01   8.3783784e-01   8.3783784e-01   8.3783784e-01   2.7027027e-02   2.7027027e-02   2.7027027e-02   2.7027027e-02  -1.6216216e-01  -1.6216216e-01  -1.6216216e-01  -1.6216216e-01   4.3243243e-01   4.3243243e-01   4.3243243e-01   4.3243243e-01   5.1351351e-01   5.1351351e-01   5.1351351e-01   5.1351351e-01   7.0270270e-01   7.0270270e-01   7.0270270e-01   7.0270270e-01  -2.7027027e-02  -2.7027027e-02  -2.7027027e-02  -2.7027027e-02   1.0810811e-01   1.0810811e-01   1.0810811e-01   1.0810811e-01   4.3243243e-01   4.3243243e-01   4.3243243e-01   4.3243243e-01  -1.0810811e-01  -1.0810811e-01  -1.0810811e-01  -1.0810811e-01   1.6216216e-01   1.6216216e-01   1.6216216e-01   1.6216216e-01   1.8918919e-01   1.8918919e-01   1.8918919e-01   1.8918919e-01   4.5945946e-01   4.5945946e-01   4.5945946e-01   4.5945946e-01   1.3513513e-01   1.3513513e-01   1.3513513e-01   1.3513513e-01   8.3783784e-01   8.3783784e-01   8.3783784e-01   8.3783784e-01   5.4054054e-02   5.4054054e-02   5.4054054e-02   5.4054054e-02   7.8378378e-01   7.8378378e-01   7.8378378e-01   7.8378378e-01  -1.3513513e-01  -1.3513513e-01  -1.3513513e-01  -1.3513513e-01  -2.7027027e-02  -2.7027027e-02  -2.7027027e-02  -2.7027027e-02  -2.7027027e-02   5.9459460e-01   5.9459460e-01   5.9459460e-01   5.9459460e-01  -8.1081081e-02  -8.1081081e-02  -8.1081081e-02  -8.1081081e-02  -1.6216216e-01  -1.6216216e-01  -1.6216216e-01  -1.6216216e-01   5.1351351e-01   5.1351351e-01   5.1351351e-01   5.1351351e-01   3.7837838e-01   3.7837838e-01   3.7837838e-01   3.7837838e-01   8.1081081e-02   8.1081081e-02   8.1081081e-02   8.1081081e-02   6.2162162e-01   6.2162162e-01   6.2162162e-01   2.1621622e-01   2.1621622e-01   2.1621622e-01   6.2162162e-01   8.1081081e-02   7.5675676e-01   7.0270270e-01   6.2162162e-01   3.7837838e-01   1.3513513e-01   9.4594595e-01   9.7297297e-01   7.0270270e-01  -8.1081081e-02   1.3513513e-01   3.7837838e-01   2.4324324e-01   1.0810811e-01   1.0810811e-01   8.1081081e-01   4.0540540e-01   4.0540540e-01   1.6216216e-01   5.1351351e-01   2.1621622e-01   3.2432432e-01   2.7027027e-01   5.9459460e-01   5.4054054e-02   5.4054054e-02   3.7837838e-01  -8.1081081e-02   5.1351351e-01   1.8918919e-01   1.8918919e-01   3.5135135e-01   5.1351351e-01   2.1621622e-01   2.4324324e-01   5.4054054e-02   2.1621622e-01   1.6216216e-01   2.9729730e-01   5.4054054e-01   2.1621622e-01   4.8648649e-01   3.2432432e-01   8.9189189e-01   7.8378378e-01   7.8378378e-01   7.8378378e-01   2.9729730e-01   5.4054054e-01   4.5945946e-01   7.0270270e-01   7.0270270e-01   3.2432432e-01
   1.0000000e+00  -1.0000000e+00   1.0000000e+00   1.0000000e+00   1.0000000e+00  -1.0000000e+00   1.0000000e+00   1.0000000e+00   1.0000000e+00   1.0000000e+00   1.0000000e+00   1.0000000e+00   1.0000000e+00   1.0000000e+00  -1.0000000e+00  -1.0000000e+00   1.0000000e+00   1.0000000e+00  -1.0000000e+00   1.0000000e+00   1.0000000e+00   1.0000000e+00   1.0000000e+00   1.0000000e+00   1.0000000e+00   1.0000000e+00   1.0000000e+00   1.0000000e+00   1.0000000e+00  -1.0000000e+00  -1.0000000e+00  -1.0000000e+00  -1.0000000e+00   1.0000000e+00   1.0000000e+00   1.0000000e+00   1.0000000e+00   1.0000000e+00   1.0000000e+00   1.0000000e+00   1.0000000e+00   1.0000000e+00   1.0000000e+00  -1.0000000e+00  -1.0000000e+00  -1.0000000e+00   1.0000000e+00   1.0000000e+00   1.0000000e+00   1.0000000e+00   1.0000000e+00   1.0000000e+00  -1.0000000e+00  -1.0000000e+00   1.0000000e+00   1.0000000e+00   1.0000000e+00   1.0000000e+00  -1.0000000e+00   1.0000000e+00   1.0000000e+00   1.0000000e+00   1.0000000e+00   1.0000000e+00   1.0000000e+00   1.0000000e+00   1.0000000e+00   1.0000000e+00   1.0000000e+00  -1.0000000e+00   1.0000000e+00   1.0000000e+00  -1.0000000e+00  -1.0000000e+00  -1.0000000e+00  -1.0000000e+00   1.0000000e+00   1.0000000e+00   1.0000000e+00  -1.0000000e+00  -1.0000000e+00  -1.0000000e+00  -1.0000000e+00   1.0000000e+00   1.0000000e+00   1.0000000e+00   1.0000000e+00   1.0000000e+00   1.0000000e+00   1.0000000e+00   1.0000000e+00  -1.0000000e+00  -1.0000000e+00  -1.0000000e+00   1.0000000e+00   1.0000000e+00   1.0000000e+00   1.0000000e+00   1.0000000e+00   1.0000000e+00   1.0000000e+00   1.0000000e+00   1.0000000e+00   1.0000000e+00   1.0000000e+00  -1.0000000e+00  -1.0000000e+00  -1.0000000e+00  -1.0000000e+00   1.0000000e+00   1.0000000e+00  -1.0000000e+00  -1.0000000e+00  -1.0000000e+00   1.0000000e+00   1.0000000e+00   1.0000000e+00  -1.0000000e+00  -1.0000000e+00  -1.0000000e+00   1.0000000e+00   1.0000000e+00   1.0000000e+00   1.0000000e+00   1.0000000e+00   1.0000000e+00   1.0000000e+00   1.0000000e+00   1.0000000e+00   1.0000000e+00   1.0000000e+00   1.0000000e+00   1.0000000e+00  -1.0000000e+00  -1.0000000e+00  -1.0000000e+00   1.0000000e+00   1.0000000e+00   1.0000000e+00   1.0000000e+00   1.0000000e+00   1.0000000e+00   1.0000000e+00   1.0000000e+00   1.0000000e+00   1.0000000e+00   1.0000000e+00   1.0000000e+00   1.0000000e+00   1.0000000e+00   1.0000000e+00   1.0000000e+00   1.0000000e+00  -1.0000000e+00  -1.0000000e+00   1.0000000e+00   1.0000000e+00   1.0000000e+00   1.0000000e+00   1.0000000e+00   1.0000000e+00   1.0000000e+00   1.0000000e+00   1.0000000e+00   1.0000000e+00   1.0000000e+00   1.0000000e+00   1.0000000e+00   1.0000000e+00   1.0000000e+00   1.0000000e+00   1.0000000e+00   1.0000000e+00   1.0000000e+00   1.0000000e+00   1.0000000e+00   1.0000000e+00   1.0000000e+00   1.0000000e+00   1.0000000e+00   1.0000000e+00   1.0000000e+00   1.0000000e+00   1.0000000e+00   1.0000000e+00   1.0000000e+00   1.0000000e+00   1.0000000e+00   1.0000000e+00   1.0000000e+00   1.0000000e+00   1.0000000e+00   1.0000000e+00   1.0000000e+00   1.0000000e+00   1.0000000e+00   1.0000000e+00   1.0000000e+00   1.0000000e+00   1.0000000e+00   1.0000000e+00   1.0000000e+00   1.0000000e+00   1.0000000e+00   1.0000000e+00   1.0000000e+00   1.0000000e+00   1.0000000e+00   1.0000000e+00   1.0000000e+00   1.0000000e+00  -1.0000000e+00  -1.0000000e+00  -1.0000000e+00  -1.0000000e+00  -1.0000000e+00  -1.0000000e+00  -1.0000000e+00   1.0000000e+00   1.0000000e+00   1.0000000e+00   1.0000000e+00  -1.0000000e+00  -1.0000000e+00  -1.0000000e+00  -1.0000000e+00   1.0000000e+00   1.0000000e+00   1.0000000e+00   1.0000000e+00   1.0000000e+00   1.0000000e+00   1.0000000e+00  -1.0000000e+00  -1.0000000e+00  -1.0000000e+00  -1.0000000e+00  -1.0000000e+00  -1.0000000e+00  -1.0000000e+00  -1.0000000e+00  -1.0000000e+00  -1.0000000e+00  -1.0000000e+00  -1.0000000e+00   1.0000000e+00   1.0000000e+00   1.0000000e+00   1.0000000e+00   1.0000000e+00   1.0000000e+00  -1.0000000e+00  -1.0000000e+00   1.0000000e+00  -1.0000000e+00  -1.0000000e+00   1.0000000e+00   1.0000000e+00  -1.0000000e+00   1.0000000e+00   1.0000000e+00   1.0000000e+00   1.0000000e+00   1.0000000e+00   1.0000000e+00   1.0000000e+00   1.0000000e+00   1.0000000e+00   1.0000000e+00   1.0000000e+00   1.0000000e+00   1.0000000e+00   1.0000000e+00   1.0000000e+00   1.0000000e+00   1.0000000e+00   1.0000000e+00   1.0000000e+00   1.0000000e+00   1.0000000e+00   1.0000000e+00   1.0000000e+00   1.0000000e+00   1.0000000e+00   1.0000000e+00   1.0000000e+00  -1.0000000e+00  -1.0000000e+00  -1.0000000e+00  -1.0000000e+00   1.0000000e+00   1.0000000e+00   1.0000000e+00   1.0000000e+00   1.0000000e+00   1.0000000e+00   1.0000000e+00   1.0000000e+00   1.0000000e+00   1.0000000e+00   1.0000000e+00   1.0000000e+00   1.0000000e+00   1.0000000e+00   1.0000000e+00   1.0000000e+00   1.0000000e+00   1.0000000e+00   1.0000000e+00   1.0000000e+00   1.0000000e+00   1.0000000e+00   1.0000000e+00   1.0000000e+00   1.0000000e+00   1.0000000e+00   1.0000000e+00   1.0000000e+00   1.0000000e+00   1.0000000e+00   1.0000000e+00   1.0000000e+00   1.0000000e+00   1.0000000e+00   1.0000000e+00   1.0000000e+00   1.0000000e+00   1.0000000e+00   1.0000000e+00   1.0000000e+00  -1.0000000e+00  -1.0000000e+00  -1.0000000e+00  -1.0000000e+00  -1.0000000e+00   1.0000000e+00   1.0000000e+00   1.0000000e+00   1.0000000e+00   1.0000000e+00   1.0000000e+00   1.0000000e+00  -1.0000000e+00  -1.0000000e+00  -1.0000000e+00  -1.0000000e+00   1.0000000e+00   1.0000000e+00   1.0000000e+00   1.0000000e+00  -1.0000000e+00  -1.0000000e+00  -1.0000000e+00  -1.0000000e+00  -1.0000000e+00  -1.0000000e+00  -1.0000000e+00  -1.0000000e+00   1.0000000e+00   1.0000000e+00   1.0000000e+00   1.0000000e+00   1.0000000e+00  -1.0000000e+00  -1.0000000e+00  -1.0000000e+00  -1.0000000e+00   1.0000000e+00   1.0000000e+00   1.0000000e+00   1.0000000e+00   1.0000000e+00   1.0000000e+00   1.0000000e+00   1.0000000e+00   1.0000000e+00   1.0000000e+00   1.0000000e+00   1.0000000e+00  -1.0000000e+00  -1.0000000e+00  -1.0000000e+00  -1.0000000e+00   1.0000000e+00   1.0000000e+00   1.0000000e+00   1.0000000e+00  -1.0000000e+00  -1.0000000e+00  -1.0000000e+00   1.0000000e+00   1.0000000e+00   1.0000000e+00  -1.0000000e+00   1.0000000e+00   1.0000000e+00   1.0000000e+00   1.0000000e+00   1.0000000e+00  -1.0000000e+00   1.0000000e+00  -1.0000000e+00  -1.0000000e+00   1.0000000e+00   1.0000000e+00   1.0000000e+00   1.0000000e+00   1.0000000e+00   1.0000000e+00  -1.0000000e+00   1.0000000e+00   1.0000000e+00   1.0000000e+00  -1.0000000e+00  -1.0000000e+00   1.0000000e+00  -1.0000000e+00  -1.0000000e+00   1.0000000e+00   1.0000000e+00   1.0000000e+00   1.0000000e+00   1.0000000e+00   1.0000000e+00   1.0000000e+00   1.0000000e+00   1.0000000e+00   1.0000000e+00  -1.0000000e+00   1.0000000e+00   1.0000000e+00   1.0000000e+00   1.0000000e+00   1.0000000e+00   1.0000000e+00   1.0000000e+00   1.0000000e+00   1.0000000e+00  -1.0000000e+00  -1.0000000e+00  -1.0000000e+00   1.0000000e+00   1.0000000e+00   1.0000000e+00   1.0000000e+00   1.0000000e+00  -1.0000000e+00
  -8.8894669e-01  -8.2737078e-01  -9.1123153e-01  -8.7305433e-01  -8.5965144e-01  -6.9014137e-01  -8.5875120e-01  -6.8917070e-01  -8.5965144e-01  -7.9067735e-01  -8.3469105e-01  -9.1989237e-01  -8.7878680e-01  -9.1057013e-01  -7.8024293e-01  -9.1863997e-01  -7.3043311e-01  -8.7838360e-01  -7.9508868e-01  -8.1358484e-01  -8.8118617e-01  -8.6626325e-01  -8.2306187e-01  -8.5739240e-01  -8.7305433e-01  -8.7221969e-01  -8.1186538e-01  -9.0688137e-01  -8.5418190e-01  -7.8289868e-01  -8.6009989e-01  -8.1698078e-01  -8.4758778e-01  -7.1507320e-01  -9.0135670e-01  -8.4662637e-01  -8.7594436e-01  -8.9417153e-01  -8.7999070e-01  -8.4614380e-01  -8.8197850e-01  -9.1832523e-01  -8.5044263e-01  -8.7999070e-01  -8.7429882e-01  -8.7512354e-01  -9.0823284e-01  -7.9320923e-01  -7.6432512e-01  -8.2032058e-01  -8.9195258e-01  -9.0620125e-01  -8.0955007e-01  -7.1943547e-01  -8.4806664e-01  -8.1810021e-01  -8.8703997e-01  -9.3301416e-01  -7.4332412e-01  -8.9923453e-01  -8.2087186e-01  -8.0244422e-01  -8.2196987e-01  -8.9563428e-01  -8.8316010e-01  -8.6539569e-01  -8.1186538e-01  -9.0170768e-01  -7.9633250e-01  -9.3386732e-01  -8.3314543e-01  -9.4159300e-01  -8.9780403e-01  -9.3997269e-01  -9.8888339e-01  -9.7241011e-01  -8.2414791e-01  -8.0123599e-01  -8.4322209e-01  -8.1244014e-01  -7.9756908e-01  -8.2251662e-01  -8.2032058e-01  -8.3875314e-01  -8.0184098e-01  -8.1071099e-01  -4.7311835e-01  -4.4725738e-01  -5.6429408e-01  -6.4033115e-01  -8.5965144e-01  -7.5330972e-01  -8.1244014e-01  -8.2142162e-01  -8.3571464e-01  -8.4806664e-01  -8.6841376e-01  -9.2113446e-01  -8.3054173e-01  -8.9453845e-01  -8.1754127e-01  -7.9446403e-01  -7.6646624e-01  -8.3001679e-01  -7.8024293e-01  -7.7619840e-01  -7.8090989e-01  -7.7346057e-01  -8.9045646e-01  -9.5586121e-01  -8.9343520e-01  -8.0002076e-01  -7.9695169e-01  -7.8090989e-01  -8.0002076e-01  -6.4148806e-01  -8.1472314e-01  -6.5939103e-01  -8.1358484e-01  -8.8394326e-01  -9.0688137e-01  -8.3774565e-01  -9.3695279e-01  -7.4253830e-01  -8.8237328e-01  -7.8940014e-01  -8.9994504e-01  -4.4103347e-01  -8.2142162e-01  -8.6188259e-01  -7.6999051e-01  -7.6504107e-01  -7.8552263e-01  -8.7635331e-01  -9.3471544e-01  -8.3774565e-01  -7.6788254e-01  -7.5555511e-01  -5.6577337e-01  -8.8316010e-01  -8.8856709e-01  -8.6496031e-01  -7.3125914e-01  -6.9965670e-01  -7.5180073e-01  -7.8421459e-01  -8.9636076e-01  -9.0722033e-01  -8.8276715e-01  -8.3520353e-01  -6.3565698e-01  -7.2877266e-01  -6.7622118e-01  -8.4996986e-01  -8.1358484e-01  -7.2029891e-01  -6.6476108e-01  -7.9003969e-01  -9.1926747e-01  -9.5366716e-01  -9.2419530e-01  -7.3043311e-01  -7.6143873e-01  -7.4798531e-01  -5.0266813e-01  -6.7519890e-01  -9.3888200e-01   6.6353014e-02  -7.5555511e-01  -7.9003969e-01  -7.7483368e-01  -8.3520353e-01  -7.1595171e-01  -7.7687764e-01  -8.3774565e-01  -8.0184098e-01  -8.3158739e-01  -9.0414311e-01  -9.0310392e-01  -1.2312077e-01  -6.2117186e-01  -7.5629878e-01  -7.9695169e-01  -7.9818467e-01  -7.6929004e-01  -7.8811533e-01  -7.5555511e-01  -7.8024293e-01  -8.5693721e-01  -6.6262543e-01  -8.6054722e-01  -8.5044263e-01  -8.7221969e-01  -8.2896266e-01  -8.3001679e-01  -8.6669544e-01  -6.9110850e-01  -7.7890295e-01  -7.9003969e-01  -7.1241922e-01  -8.4371220e-01  -8.7263751e-01  -8.4124886e-01  -7.3208240e-01  -7.9879848e-01  -8.0896714e-01  -7.8355763e-01  -7.4951890e-01  -7.6575477e-01  -8.2196987e-01  -8.6755669e-01  -7.8024293e-01  -8.0661882e-01  -7.7207897e-01  -7.5998181e-01  -7.7346057e-01  -8.2522805e-01  -6.3210167e-01  -6.8623728e-01   2.1222174e-01  -6.9494205e-01   7.1866104e-01  -7.0151899e-01  -7.2877266e-01  -7.8157482e-01  -8.3975535e-01  -8.1186538e-01  -8.4420105e-01  -6.4945910e-01  -7.3776862e-01  -8.2790284e-01  -3.3490054e-02  -8.9045646e-01   1.3222255e-01  -8.3158739e-01  -8.8665600e-01  -8.2949043e-01  -8.0720841e-01  -8.6926668e-01  -8.6969160e-01  -8.9120621e-01  -7.5255645e-01  -9.3970081e-01  -9.1800984e-01  -7.7138497e-01  -8.1528992e-01  -8.1528992e-01  -8.0661882e-01  -7.5104258e-01  -7.8421459e-01  -8.5278855e-01   2.4841666e-01  -8.8549876e-01  -8.4517493e-01  -8.1754127e-01  -7.8552263e-01  -7.8355763e-01  -7.8355763e-01  -7.5998181e-01  -6.1111022e-01  -7.3776862e-01  -6.7002940e-01  -8.4174409e-01  -8.7429882e-01  -9.3471544e-01  -7.1241922e-01  -8.6496031e-01  -8.5875120e-01  -5.2832630e-01  -7.7414818e-01   1.0000000e+00  -7.7483368e-01  -9.0100495e-01  -8.7512354e-01  -8.9232449e-01  -9.1895404e-01  -8.1244014e-01  -9.0240733e-01  -7.9383755e-01  -9.1800984e-01  -9.2955024e-01  -9.1156118e-01  -8.6408635e-01  -8.6143856e-01  -8.9269557e-01  -9.0990591e-01   3.6886860e-01  -7.8552263e-01  -8.1071099e-01  -8.5044263e-01  -7.6999051e-01  -8.5784647e-01  -8.8197850e-01  -8.1415479e-01  -7.2115939e-01  -7.4174991e-01  -7.7414818e-01  -7.7687764e-01   4.0439856e-01  -7.7414818e-01  -8.1921347e-01  -6.6688045e-01  -9.2020386e-01   2.4103217e-01  -6.2970738e-01  -6.9207211e-01  -8.3001679e-01  -7.6858738e-01  -5.7017151e-01  -7.3125914e-01  -6.6898374e-01  -7.4798531e-01  -9.2020386e-01  -7.8355763e-01  -8.1301329e-01  -8.7999070e-01  -8.4468862e-01  -8.0002076e-01  -8.4420105e-01  -7.9571150e-01  -9.3042400e-01  -9.3186870e-01  -7.8682285e-01  -7.0244515e-01  -8.5418190e-01  -8.9744442e-01  -8.2683727e-01  -8.5418190e-01  -8.5693721e-01  -9.0957273e-01  -8.4902069e-01  -9.1895404e-01  -9.7091328e-01  -8.5739240e-01  -7.9194703e-01  -8.5044263e-01  -7.8747005e-01  -7.6288647e-01  -8.3001679e-01  -6.3683256e-01  -8.5510495e-01  -7.5406059e-01  -8.6926668e-01  -8.7512354e-01  -8.8665600e-01  -8.5510495e-01  -8.7263751e-01  -9.2082489e-01  -9.5415786e-01  -9.0310392e-01  -7.8090989e-01  -7.8747005e-01  -7.7687764e-01  -8.3622441e-01  -8.1865761e-01  -8.2949043e-01  -8.3673283e-01  -8.6320810e-01   1.5787790e-01  -8.4420105e-01  -8.7263751e-01  -7.5480905e-01  -7.7346057e-01  -6.5280854e-01  -6.7314279e-01  -7.2626080e-01  -7.1856904e-01  -8.1128900e-01  -8.9490454e-01  -8.9380378e-01  -8.4468862e-01  -6.8819647e-01  -7.7068882e-01  -8.8588539e-01  -9.0586009e-01  -6.0854186e-01  -6.4378809e-01  -6.8917070e-01   1.1974956e-01  -5.0795069e-01   5.5059592e-02  -8.3054173e-01  -5.5830954e-01  -7.8617371e-01  -7.9446403e-01  -8.8355214e-01  -8.0838256e-01  -6.8127569e-01  -8.1810021e-01  -7.0336802e-01  -6.7723964e-01  -4.3470863e-01  -7.8617371e-01   9.8317351e-01  -9.6246264e-01  -6.4720412e-01  -7.7346057e-01  -8.3622441e-01  -8.9157982e-01  -8.4025449e-01  -7.7551709e-01  -6.8623728e-01  -7.9941050e-01  -8.1698078e-01  -7.9131313e-01  -8.8158279e-01  -6.6262543e-01  -5.6577337e-01  -6.2607923e-01  -8.6798574e-01  -8.5875120e-01  -8.6926668e-01  -9.1352441e-01  -8.0062925e-01  -9.0722033e-01  -8.7594436e-01  -9.0483214e-01  -8.2522805e-01  -8.8703997e-01  -9.1514151e-01  -8.5510495e-01  -8.6669544e-01  -6.9965670e-01  -8.6798574e-01  -8.5371862e-01  -9.3100361e-01  -8.8316010e-01  -8.2306187e-01  -8.7053835e-01  -8.8394326e-01  -9.1642300e-01  -8.6755669e-01  -8.7512354e-01  -1.0000000e+00  -9.4711992e-01  -8.7878680e-01  -9.1832523e-01  -7.6999051e-01  -6.0724955e-01  -6.0724955e-01  -5.3647654e-01  -6.8525227e-01  -7.3372064e-01  -4.7694433e-01   3.3056892e-02  -6.4945910e-01  -5.7451102e-01
  -7.2002308e-01  -5.1153134e-01  -6.8936568e-01  -6.2209973e-01  -6.2209973e-01  -9.4871062e-01  -6.3905876e-01  -1.5479176e-01  -9.8776953e-01  -5.3624075e-01  -6.5622173e-01  -7.3137203e-01  -7.4577979e-01  -7.0759500e-01  -7.3623486e-01  -7.2997135e-01  -2.2721258e-01  -6.1383294e-01  -7.2786082e-01  -5.4168635e-01  -6.0446447e-01  -6.1752606e-01  -6.6537504e-01  -6.1660565e-01  -6.2932052e-01  -6.4772598e-01  -4.7201410e-01  -7.4171822e-01  -5.1382951e-01  -3.4947347e-01  -6.5284367e-01  -6.4943869e-01  -7.8292650e-01  -2.3289895e-01  -7.1785805e-01  -7.3276765e-01  -7.7925280e-01  -7.9372830e-01  -8.0017210e-01  -8.1271645e-01  -7.8170607e-01  -8.1550556e-01  -7.1640808e-01  -6.9706137e-01  -6.8389107e-01  -7.2145983e-01  -6.6537504e-01  -5.6079448e-01  -6.9629832e-01  -4.5685465e-01  -7.6609579e-01  -8.6502017e-01  -5.2962434e-01  -3.1910566e-01  -4.7076755e-01  -4.9514119e-01  -8.6645344e-01  -7.2431766e-01  -4.4387822e-01  -6.3199802e-01  -5.2516305e-01  -4.7449821e-01  -4.7449821e-01  -7.0386460e-01  -5.9778871e-01  -6.8310300e-01  -4.9869865e-01  -7.3067231e-01  -6.2662659e-01  -7.5574748e-01  -5.0573904e-01  -8.7024437e-01  -8.2644135e-01  -9.0413827e-01  -9.3838529e-01  -9.0540227e-01  -4.9751562e-01  -5.2962434e-01  -5.7210359e-01  -3.5874322e-01  -2.9909091e-01  -3.7832688e-01  -4.2787668e-01  -5.2851282e-01  -3.7386712e-01  -3.9438317e-01  -3.4163354e-01  -3.9438317e-01  -2.4781840e-01  -4.3726896e-01  -9.6522385e-01  -2.8710100e-01  -4.0436503e-01  -5.5975279e-01  -5.0457248e-01  -5.6904620e-01  -6.0256714e-01  -8.1103216e-01  -7.1713373e-01  -6.5873778e-01  -7.0833693e-01  -2.8363145e-01  -2.6419045e-01  -3.9725353e-01  -3.2400610e-01  -2.6058912e-01  -5.2962434e-01  -2.7838995e-01  -5.8709626e-01  -7.9842628e-01  -6.4943869e-01  -3.0415758e-01  -3.3368665e-01  -2.7310333e-01  -3.1746313e-01  -6.7834262e-01  -3.9725353e-01   1.1252423e-01  -3.5412699e-01  -5.9295950e-01  -6.8780896e-01  -5.3183981e-01  -7.1713373e-01  -2.2339337e-01  -6.8858806e-01  -4.6322474e-01  -6.5873778e-01  -5.3842634e-01  -4.0998892e-01  -5.4384751e-01  -2.9398137e-01  -3.5257997e-01  -6.1104289e-01  -6.5957317e-01  -8.2536335e-01  -6.4080617e-01  -5.9295950e-01  -1.8998554e-01  -4.4910710e-01  -6.1010900e-01  -6.2209973e-01  -6.3730428e-01  -7.3346359e-01  -7.5179190e-01  -8.7861197e-01  -8.4680052e-01  -6.3465923e-01  -6.1568333e-01  -6.0256714e-01  -4.3992252e-01  -7.4171822e-01  -9.5408919e-01  -8.8044164e-01  -4.5941199e-01  -4.4519029e-01  -9.4857303e-02   7.6741454e-02  -3.6937196e-01  -6.9246144e-01  -8.1661494e-01  -8.4831625e-01  -1.7365486e-01  -3.4005279e-01  -3.9294242e-01  -8.2265340e-01  -9.7917463e-01  -7.4103707e-01  -5.3073333e-01  -1.9400589e-01  -2.8188927e-01  -2.6239240e-01  -4.5040629e-01  -1.1090037e-01  -2.5696687e-01  -4.2652146e-01  -3.4321002e-01  -4.0718416e-01  -5.9778871e-01  -6.6865485e-01  -4.0998892e-01   1.9588750e-01  -2.2721258e-01  -3.2074364e-01  -4.6700983e-01  -2.6598331e-01  -3.1746313e-01  -1.9400589e-01  -2.8536868e-01  -4.8309946e-01  -7.2289135e-01  -4.9155852e-01  -5.4384751e-01  -5.8807869e-01  -5.6287100e-01  -6.3288689e-01  -7.3623486e-01  -5.5027332e-01  -4.7943082e-01  -4.8187949e-01  -3.2886627e-01  -4.5170229e-01  -5.4707117e-01  -5.0690288e-01  -1.4407976e-01  -3.2725065e-01  -3.4163354e-01  -3.6180022e-01  -1.6950870e-01  -2.1955130e-01  -4.3992252e-01  -5.3073333e-01  -3.4947347e-01  -6.2027593e-01  -3.4005279e-01  -2.1762162e-01  -8.0478581e-01  -4.4256292e-01  -6.5453605e-01  -3.5352358e-03  -4.0436503e-01  -8.4066718e-01  -4.1138593e-01  -6.1638718e-02  -1.4191696e-01  -3.1250821e-01  -4.8795040e-01  -3.5720858e-01  -4.3726896e-01  -9.3574398e-01  -1.1990517e-01  -9.3725630e-01  -4.6826543e-01  -5.7614923e-01  -4.6951800e-01  -5.1037824e-01  -6.3818240e-01  -5.8709626e-01  -4.2106627e-01  -6.0729560e-01  -5.7413079e-01  -6.2662659e-01  -2.8536868e-01  -8.0990474e-01  -7.6353555e-01  -8.0248652e-01  -4.3460218e-01  -4.1277939e-01  -3.8421888e-01  -3.1250821e-01  -3.7684419e-01  -6.1936119e-01  -7.8441138e-02  -5.8115729e-01  -5.2179026e-01  -3.8275165e-01  -2.6955357e-01  -3.2400610e-01  -3.8128060e-01  -5.4920831e-01  -7.1785805e-01  -2.9226856e-01  -7.6031024e-01  -5.0105642e-01  -5.3624075e-01  -7.5901226e-01  -6.5622173e-01  -5.4599902e-01  -5.2851282e-01   4.5632086e-01  -2.3478320e-01  -6.4427995e-01  -3.1250821e-01  -6.3288689e-01  -6.0823535e-01  -6.3642438e-01  -6.7913984e-01  -4.3460218e-01  -6.3199802e-01  -3.3208425e-01  -7.0160960e-01  -7.1495275e-01  -6.5029248e-01  -5.6699680e-01  -5.3404526e-01  -5.8905901e-01  -6.4600642e-01  -4.4124436e-01  -2.5332348e-01  -3.3208425e-01  -5.2291709e-01  -3.5257997e-01  -5.6596873e-01  -5.9970614e-01  -4.7573580e-01  -1.6533666e-01  -2.0197335e-01  -3.2725065e-01  -3.0078454e-01   1.0000000e+00  -4.3726896e-01  -4.9394978e-01  -1.3319664e-01  -8.2536335e-01  -6.7674358e-01  -8.6358047e-01  -4.4256292e-01  -3.5720858e-01  -1.8187053e-01  -8.8987515e-01  -8.4831625e-01  -4.7697043e-01  -1.8390865e-01  -7.1129089e-01  -3.7684419e-01  -3.9004968e-01  -6.2932052e-01  -5.8413634e-01  -4.3992252e-01  -5.5027332e-01  -5.3073333e-01  -7.4846362e-01  -7.2926911e-01  -8.9644121e-01  -1.6324086e-01  -6.9091650e-01  -7.1422309e-01  -4.7820210e-01  -4.8795040e-01  -5.3294378e-01  -6.9553384e-01  -4.9275556e-01  -8.7861197e-01  -8.8541871e-01  -5.4599902e-01  -2.6058912e-01  -6.1475909e-01  -3.4635019e-01  -2.6598331e-01  -5.6390583e-01  -7.1055445e-01  -6.2662659e-01  -2.4040262e-01  -5.9778871e-01  -6.0541016e-01  -5.9295950e-01  -4.9275556e-01  -6.3642438e-01  -7.0610701e-01  -7.9959112e-01  -6.8467764e-01  -3.0751181e-01  -2.6239240e-01  -2.6419045e-01  -4.8795040e-01  -4.0436503e-01  -5.1037824e-01  -4.6951800e-01  -5.9392943e-01  -3.6027375e-01  -5.7514111e-01  -6.4686706e-01  -7.0759500e-01  -4.1693859e-01  -6.6783730e-01   7.9662828e-02  -1.4407976e-01  -6.8887923e-02  -3.9294242e-01  -6.5453605e-01  -6.4686706e-01  -5.9778871e-01  -6.6479608e-02  -3.2886627e-01  -6.0635387e-01  -6.8858806e-01  -9.0833110e-01  -9.5726683e-01  -1.0000000e+00  -9.8556824e-01  -5.4599902e-01  -6.5029248e-01  -4.3726896e-01  -3.5257997e-01  -4.9632980e-01  -4.0858834e-01  -6.0823535e-01  -4.7076755e-01   5.3752143e-02  -3.8568228e-01  -1.1377561e-02  -7.0833693e-01  -3.0583703e-01  -2.4597261e-01  -8.1103216e-01  -7.6800443e-01  -6.7109798e-01  -8.6358047e-01  -4.5557128e-01  -6.2118877e-01  -5.1268175e-01  -2.5149381e-01  -2.4267811e-02  -2.9226856e-01  -4.0718416e-01  -3.2886627e-01  -5.2851282e-01  -6.2209973e-01  -4.5941199e-01  -5.1037824e-01  -5.3514425e-01  -4.9751562e-01  -5.4384751e-01  -6.4254655e-01  -3.1416443e-01  -6.5029248e-01  -5.4599902e-01  -6.5790075e-01  -3.7237268e-01  -5.8115729e-01  -6.6040690e-01  -5.7210359e-01  -5.7715517e-01  -2.6819236e-02  -5.3183981e-01  -5.6596873e-01  -6.8936568e-01  -7.7116372e-01  -5.1952881e-01  -8.1937285e-01  -6.4167724e-01  -6.4858318e-01  -5.6802262e-01  -5.6287100e-01  -9.0540227e-01  -7.3967112e-01  -7.3485172e-01  -6.8467764e-01  -9.9395770e-01  -4.3726896e-01  -4.3726896e-01  -5.5239623e-01  -9.5656385e-01  -5.5975279e-01  -3.9004968e-01  -4.7573580e-01  -6.3905876e-01  -6.6206946e-01
   3.1436928e-01  -3.9537054e-02   2.9930379e-01   1.3889467e-01   1.1955141e-01  -2.1813745e-01   1.6567020e-01  -4.0553203e-01   1.3682038e-01  -8.5501525e-02   5.8121299e-02   3.8325677e-01   3.7614211e-01   3.3602010e-01   4.1809259e-01   4.1403912e-01  -3.2282613e-01   1.4670554e-01   1.5367127e-01  -6.3884802e-02   1.7534003e-01   1.0993002e-01   1.0293558e-01   1.0183923e-01   1.4119146e-01   1.4446259e-01  -1.0599498e-01   3.3993181e-01   2.1227346e-02  -2.0487170e-01   2.3921227e-01   1.0088103e-01   2.7580118e-01  -3.7779831e-01   3.8027813e-01   3.2581195e-01   4.3922663e-01   3.6866679e-01   3.8952449e-01   2.3792213e-01   2.9823434e-01   5.0455051e-01   1.7349004e-01   2.8063700e-01   2.3424906e-01   2.8802081e-01   2.9612058e-01  -7.3326754e-02  -1.0177822e-01  -7.7552485e-02   4.0184999e-01   4.6454513e-01   5.8783420e-03  -3.0847300e-01  -1.5329266e-02  -8.6998026e-02   3.2475328e-01   4.1858783e-01  -2.0559304e-01   2.2028351e-01  -5.7550691e-02  -8.3434416e-02  -5.5639691e-02   3.1104612e-01   1.6639333e-01   3.1666427e-01  -6.3147317e-02   2.8206890e-01   1.3540283e-02   5.0490939e-01  -4.1657994e-02   7.2320294e-01   6.3183564e-01   8.4973264e-01   9.3948322e-01   8.9021891e-01  -5.7294097e-02  -3.7137987e-02   4.6283869e-02  -1.4943477e-01  -2.1507088e-01  -1.2509779e-01  -9.1747712e-02   3.2957115e-02  -1.5844070e-01  -1.3349363e-01  -3.4805491e-01  -3.3839404e-01  -4.2366948e-01  -2.8880316e-01   1.9412883e-01  -2.7169029e-01  -1.3782523e-01  -6.2020456e-02  -1.7678091e-02   5.4706621e-02   1.2899874e-01   5.7054010e-01   3.5199354e-01   2.3094025e-01   3.3858066e-01  -2.1776243e-01  -2.5352952e-01  -9.7202584e-02  -2.2112686e-01  -2.6258209e-01  -9.0159698e-02  -2.5891441e-01   1.6264310e-01   6.1568634e-01   2.3321191e-01  -2.0074646e-01  -1.8065136e-01  -2.4529517e-01  -2.0019379e-01  -3.9257133e-02  -1.1249237e-01  -5.2090257e-01  -1.5147856e-01   1.5361744e-01   3.5144088e-01   3.7448412e-03   4.3387583e-01  -3.1990849e-01   3.1325139e-01  -1.2660506e-01   2.5839943e-01  -2.4012202e-01  -1.0164543e-01   7.9179975e-02  -2.5439978e-01  -2.1452001e-01  -2.4749686e-02   1.8928584e-01   6.6017585e-01   7.2747174e-02  -8.3958371e-03  -3.1692446e-01  -2.8699085e-01   1.7452360e-01   2.0109815e-01   1.3577965e-01   1.2680962e-01   1.3760093e-01   4.7290867e-01   4.7406244e-01   2.2337161e-01   2.2505293e-01   1.7300197e-01  -6.7403553e-02  -1.7534542e-02   2.9940606e-01  -2.2016867e-03  -2.5977032e-02  -9.0990490e-02  -3.9943298e-01  -5.1035349e-01  -2.0049883e-01   3.5828817e-01   5.9770859e-01   6.9844070e-01  -3.5817692e-01  -1.9711645e-01  -1.9870447e-01  -1.6982415e-01   3.8854477e-01   4.6371254e-01  -3.4690472e-02  -3.2310605e-01  -2.2973084e-01  -2.5781626e-01  -6.7403553e-02  -3.9310066e-01  -2.5830253e-01  -5.9018482e-02  -1.7230576e-01  -9.2883546e-02   2.0935223e-01   2.9366051e-01  -6.2701776e-01  -5.7799569e-01  -2.8886237e-01  -1.9796160e-01  -7.1941504e-02  -2.6896106e-01  -2.0982236e-01  -3.1477122e-01  -2.3945631e-01   3.8399426e-04  -9.0184820e-03   1.8002871e-02   4.9524493e-02   1.1882469e-01   2.6174412e-02   1.3770680e-01   3.4815001e-01  -2.4780728e-01  -5.1071236e-02  -1.4309169e-01  -2.9911897e-01  -3.0723129e-02   7.9899516e-02   1.8196662e-02  -3.6493630e-01  -1.8644536e-01  -1.6901489e-01  -2.1664812e-01  -3.2849453e-01  -2.9274358e-01  -6.7771398e-02   6.3396734e-02  -2.2130989e-01   4.6158263e-02  -1.8698367e-01  -3.0717567e-01  -2.7875112e-01  -8.1980980e-02   2.1423829e-01  -4.5710389e-01  -1.7031940e-01   2.5050960e-01  -3.5453257e-01  -4.3069980e-01  -3.7627669e-01  -2.1963933e-01  -2.2931994e-02  -1.5571685e-01  -4.8485555e-02   4.1087386e-01  -3.6455948e-01  -1.1596088e-01  -2.4924278e-01   1.5428674e-01  -1.5180334e-01  -3.6224655e-02   2.0086847e-01   3.2637718e-02  -1.2529697e-01   1.3897362e-01   1.0618518e-01   1.9783958e-01  -2.9989772e-01   6.3220707e-01   4.8041270e-01   1.8985825e-01  -8.6183384e-02  -1.2252826e-01  -1.4000000e-01  -2.6682218e-01  -1.5325139e-01   1.2095101e-01  -4.6853400e-01   1.4942221e-01   3.9978468e-03  -1.2861296e-01  -2.4320294e-01  -2.0175668e-01  -1.8210479e-01  -1.0668940e-01   1.9118966e-02  -2.7096178e-01   1.3770680e-01   1.4850171e-02   8.3312399e-02   4.9603625e-01  -6.7748071e-02   7.2899695e-02   6.7364077e-02  -6.9550332e-01  -2.7514265e-01   2.3124349e-01  -2.2761170e-01   2.6700162e-01   1.6773192e-01   2.3940786e-01   3.4477122e-01  -1.1039117e-01   2.4304863e-01  -1.9312040e-01   3.5917100e-01   4.0794545e-01   2.7751121e-01   1.1006101e-01   5.0719541e-02   1.7731922e-01   2.5923022e-01  -4.9319038e-01  -2.4655302e-01  -1.7528800e-01   4.2720258e-02  -2.0128297e-01   4.5361565e-02   1.2815360e-01  -8.7670913e-02  -3.9214965e-01  -3.2783599e-01  -2.0635744e-01  -2.4219810e-01  -1.0000000e+00  -1.4706801e-01  -6.0525749e-02  -4.5236318e-01   6.4163467e-01  -1.0184640e-01  -7.9409654e-02  -1.7360847e-01  -1.2361385e-01  -3.0389198e-01  -1.6354567e-01   1.7854836e-01  -2.8198816e-01  -3.2984568e-01   3.9145523e-01  -1.8284586e-01  -1.3312040e-01   1.7541719e-01   5.9093845e-02  -1.2649381e-01   4.4862731e-02  -1.4752198e-01   4.5698188e-01   4.1700161e-01  -8.5094204e-02  -3.7738920e-01   1.9850350e-01   3.1760632e-01  -4.6551229e-02  -8.5878342e-03   4.4514624e-02   3.2087027e-01  -1.9366589e-02   6.7245469e-01   8.4358514e-01   4.0875650e-02  -2.3643101e-01   1.2831330e-01  -1.9606316e-01  -2.9732460e-01  -3.7310246e-02   2.0468688e-01   1.0231114e-01  -2.8716311e-01   1.6084873e-01   1.6856989e-01   1.6731922e-01   1.8196662e-02   1.3802261e-01   3.6616723e-01   6.1499551e-01   2.7557509e-01  -2.3201687e-01  -2.4098870e-01  -2.5952629e-01  -1.6314373e-02  -1.2274897e-01  -2.6615826e-02  -3.5304145e-02   1.4855195e-01  -2.8284227e-01   7.8664992e-03   1.8463843e-01   8.6203122e-02  -1.8128477e-01  -5.0524134e-01  -5.0183922e-01  -3.7257492e-01  -4.0894850e-01  -1.3053831e-01   2.3307195e-01   2.1891261e-01   4.3084515e-02  -4.3098690e-01  -2.3066930e-01   1.6342006e-01   3.0998744e-01  -1.5590526e-01   1.5097972e-01   5.5133321e-01   9.0934865e-02  -3.6820205e-01  -7.4499551e-01  -7.0191997e-02  -3.8648484e-01  -7.3441593e-02  -1.5598421e-01   1.6917818e-01  -9.7584784e-02  -4.8614750e-01  -1.2966086e-01  -4.4496501e-01  -4.9210658e-01  -7.7754172e-01  -2.5207429e-01  -1.8472277e-01   5.9225552e-01  -8.1640050e-02  -2.1724206e-01  -5.7925713e-02   1.9858963e-01  -7.4394402e-03  -2.6518572e-01  -4.4862552e-01  -2.0722053e-01  -9.9580118e-02  -2.1531491e-01   9.6138525e-02  -1.2640230e-01  -2.8615647e-01  -2.7964651e-01   6.8831868e-02   2.1527005e-02   7.4188050e-02   2.7299659e-01  -1.9308990e-01   2.4152342e-01   9.2867396e-02   2.6881931e-01  -1.2327292e-01   1.4944913e-01   3.0845685e-01   1.1284228e-01   9.6072134e-02  -4.4048089e-01   6.7118249e-02   4.5933967e-02   3.7553382e-01   3.8177283e-01  -5.1893056e-03   3.8146420e-01   2.4481967e-01   2.9264848e-01   1.3312758e-01   9.5944734e-02   1.0000000e+00   4.9864705e-01   2.6423829e-01   3.2578324e-01   6.3683833e-01  -3.1792571e-01  -3.1792571e-01  -2.7896645e-01   2.8672349e-01  -1.8656200e-01  -4.8563610e-01  -7.4976135e-01   3.8806747e-02  -2.0046654e-02
  -7.9206122e-01  -8.7309212e-01  -8.8722751e-01  -8.8016881e-01  -8.2528389e-01  -5.5420854e-01  -8.1517304e-01  -9.1886107e-01  -3.4857915e-01  -8.1184177e-01  -7.1446064e-01  -8.7704912e-01  -7.3531259e-01  -8.5207811e-01  -6.4396376e-01  -8.9400709e-01  -9.3012886e-01  -8.9444376e-01  -3.6071127e-01  -8.2688200e-01  -9.1005121e-01  -8.6288222e-01  -7.5251365e-01  -8.5734961e-01  -8.6596140e-01  -8.1687919e-01  -8.9907602e-01  -7.8639356e-01  -9.3388329e-01  -9.1317540e-01  -8.4725226e-01  -6.5261606e-01  -6.1449102e-01  -9.3403185e-01  -8.2434303e-01  -6.6468066e-01  -6.9249226e-01  -6.5175173e-01  -6.0128749e-01  -5.8262788e-01  -6.4773170e-01  -7.0597490e-01  -7.0338191e-01  -7.8159923e-01  -7.6472230e-01  -7.3188228e-01  -9.0617523e-01  -7.5490856e-01  -5.7213888e-01  -9.2073378e-01  -7.5471048e-01  -6.6941196e-01  -8.1913004e-01  -8.8940634e-01  -9.4903607e-01  -9.0054358e-01  -5.2902594e-01  -8.8983400e-01  -8.1366496e-01  -9.3120477e-01  -8.6727590e-01  -8.4090034e-01  -8.9533510e-01  -8.5008835e-01  -9.0379832e-01  -7.7750717e-01  -8.9930561e-01  -7.8940971e-01  -8.7608126e-01  -8.6445783e-01  -9.0969557e-01  -6.6064262e-01  -6.5354341e-01  -6.8347532e-01  -7.2923077e-01  -7.2930280e-01  -8.8193799e-01  -7.8389511e-01  -8.7381689e-01  -9.6567441e-01  -9.8564853e-01  -9.7002307e-01  -9.2907996e-01  -8.7873277e-01  -9.2096787e-01  -9.2701367e-01  -7.8791064e-01  -7.1722919e-01  -8.4225086e-01  -8.3358956e-01  -5.7856733e-01  -9.1028080e-01  -9.3653931e-01  -8.4304766e-01  -9.0079568e-01  -8.5281189e-01  -8.6754600e-01  -6.6854763e-01  -6.3889483e-01  -8.9809015e-01  -5.3999212e-01  -9.7580327e-01  -9.5197119e-01  -9.7593383e-01  -9.4712734e-01  -9.6942434e-01  -6.7906815e-01  -9.5490631e-01  -9.2299814e-01  -8.8677283e-01  -8.8227112e-01  -9.8247032e-01  -9.6507568e-01  -9.7628946e-01  -9.7110798e-01  -7.7271735e-01  -9.4963930e-01  -9.9386416e-01  -9.7122053e-01  -9.2743233e-01  -8.9855832e-01  -8.8579596e-01  -9.4774858e-01  -9.3611614e-01  -8.1066231e-01  -8.2037252e-01  -9.0602217e-01  -3.9808452e-01  -9.4190985e-01  -9.1756907e-01  -9.4809971e-01  -9.1724495e-01  -7.5364808e-01  -8.6029374e-01  -7.4762028e-01  -6.9313151e-01  -6.2281020e-01  -9.7833774e-01  -7.1263744e-01  -8.9530809e-01  -8.9945417e-01  -8.2230375e-01  -8.6655787e-02   1.5145799e-01   3.7088515e-01   1.8602217e-01  -9.1035732e-01  -9.6475606e-01  -9.0535592e-01  -9.4543470e-01  -3.4779585e-01   3.1718868e-01  -2.0890214e-02  -9.6414833e-01  -9.1394969e-01  -9.7989984e-01  -9.8507681e-01  -9.0007991e-01  -9.0308255e-01  -8.2956502e-01  -7.4129537e-01  -9.5224579e-01  -9.0773733e-01  -8.6237803e-01  -6.1010185e-01  -4.3924371e-01  -9.0039953e-01  -6.6585561e-01  -9.7637499e-01  -9.7828372e-01  -9.6581847e-01  -9.4525013e-01  -9.6405380e-01  -9.7294919e-01  -9.7002757e-01  -9.5792246e-01  -9.7116201e-01  -9.7253953e-01  -8.8666479e-01   1.1396320e-01  -9.8324461e-01  -9.6137527e-01  -9.6804682e-01  -9.1234708e-01  -9.6629115e-01  -9.5031456e-01  -9.7734286e-01  -9.6650273e-01  -9.6278881e-01  -7.8945023e-01  -9.6555287e-01  -9.0514434e-01  -8.9934162e-01  -8.6311631e-01  -8.3130268e-01  -7.5567385e-01  -6.7509313e-01  -8.8626864e-01  -8.2066063e-01  -8.8061899e-01  -9.5983119e-01  -9.3901075e-01  -9.2850824e-01  -9.6956840e-01  -9.6415734e-01  -9.7240448e-01  -9.2965618e-01  -9.7992685e-01  -9.7052276e-01  -9.1929323e-01  -9.4253559e-01  -9.3052051e-01  -7.6111643e-01  -9.2937257e-01  -9.7650554e-01  -6.2851387e-01  -9.2314220e-01  -7.3920207e-01  -9.7838726e-01  -7.2084857e-01  -2.1805638e-01  -2.4346857e-01  -9.6961792e-01  -9.6079905e-01  -9.5515840e-01  -9.3597659e-01  -9.7126554e-01  -9.7407462e-01  -2.7106860e-01  -9.8734117e-01  -6.2226099e-01  -8.9167745e-02  -9.5177311e-01  -3.5468347e-01  -9.1372461e-01  -8.8350459e-01  -8.2272691e-01  -9.2291261e-01  -8.7883631e-01  -9.1316639e-01  -8.9141860e-01  -9.3150639e-01  -1.3114175e-01  -5.6173091e-01  -4.4636768e-02  -9.0739970e-01  -9.4255810e-01  -9.4434978e-01  -9.1585392e-01  -9.2697766e-01  -8.4753137e-01  -6.9312250e-01  -9.3880817e-01  -9.1313938e-01  -9.5727421e-01  -9.7622644e-01  -9.5157504e-01  -9.2138653e-01  -7.0956277e-01  -5.5223229e-01  -9.1042035e-01  -6.0851725e-01  -9.0911485e-01  -9.5103483e-01  -8.6098250e-01  -8.2826403e-01  -9.1922571e-01  -9.4150920e-01  -9.8993866e-01  -9.8386585e-01  -5.2565416e-01  -9.2709921e-01  -9.3594058e-01  -8.9679365e-01  -8.9401159e-01  -9.3160542e-01  -9.1508413e-01  -9.4665466e-01  -9.5480277e-01  -8.8885262e-01  -9.1640313e-01  -9.3964549e-01  -9.1472399e-01  -9.2473581e-01  -9.4809071e-01  -9.4507456e-01  -4.9154915e-01  -9.8881323e-01  -9.8680997e-01  -9.3908728e-01  -9.0809746e-01  -8.9891396e-01  -9.2721175e-01  -8.7473974e-01  -9.5195318e-01  -9.5365483e-01  -9.3537336e-01  -9.5409150e-01  -6.6571605e-01  -8.6640707e-01  -8.6615497e-01  -9.3171797e-01  -7.8603342e-01  -4.3773564e-01   2.0174442e-02  -7.5834787e-01  -1.0000000e+00  -9.9897811e-01  -3.5618255e-01  -6.2371954e-01  -6.9066006e-01  -9.7112149e-01  -8.5897473e-01  -9.1391368e-01  -9.3832649e-01  -8.9028867e-01  -8.1909853e-01  -8.6072590e-01  -8.7708964e-01  -8.4773395e-01  -8.5876315e-01  -9.1946430e-01  -5.9908165e-01  -9.2421811e-01  -7.7067807e-01  -7.8018570e-01  -9.1340949e-01  -9.5396995e-01  -9.3943841e-01  -8.6829779e-01  -9.4691126e-01  -6.3866074e-01  -7.5098756e-01  -9.1477801e-01  -9.9554780e-01  -8.5757020e-01  -9.3921783e-01  -9.5879579e-01  -8.5502223e-01  -7.0100951e-01  -8.1527657e-01  -9.5222328e-01  -8.8395926e-01  -8.9599685e-01  -9.2299364e-01  -9.4951325e-01  -8.4118845e-01  -8.8847898e-01  -8.7976366e-01  -8.6541669e-01  -9.5870126e-01  -9.8467166e-01  -9.6742558e-01  -9.0900681e-01  -9.5346576e-01  -8.9124304e-01  -9.2601429e-01  -9.0789489e-01  -7.6034663e-01  -8.7687806e-01  -8.4201227e-01  -7.9471273e-01  -8.6700580e-01  -7.9559507e-01  -9.9187440e-01  -9.5438411e-01  -9.8636880e-01  -9.4398514e-01  -8.9071634e-01  -8.8314445e-01  -8.5459006e-01  -9.5977266e-01  -9.4585786e-01  -9.1584942e-01  -8.7421304e-01  -1.3689944e-01   5.1258117e-01   1.0000000e+00   5.6582747e-01  -7.6111192e-01   6.1207585e-02  -9.4086545e-01  -8.0204153e-01  -8.1879241e-01  -9.0371729e-01  -8.9481290e-01  -8.6840133e-01  -9.8984413e-01  -9.6216758e-01  -9.9410275e-01  -7.7719656e-01  -6.5595183e-01  -9.9291880e-01   1.2986776e-01  -9.6556187e-01  -7.2760565e-01   1.5653593e-01  -9.5149401e-01  -8.9436273e-01  -9.4224748e-01  -9.7015362e-01  -9.6645321e-01  -9.8412695e-01  -9.4440380e-01  -9.5714816e-01  -9.8038152e-01  -8.2279444e-01  -6.2478195e-01  -6.7317990e-01  -9.4381408e-01  -9.5620730e-01  -9.4259862e-01  -9.4270666e-01  -9.7319678e-01   1.2487536e-01  -9.5966012e-01  -8.9734286e-01  -9.7923358e-01  -9.5592370e-01  -9.3282539e-01  -9.1684430e-01  -9.0541444e-01  -9.8333465e-01  -9.3652130e-01  -8.6141466e-01  -9.5234033e-01  -7.2271679e-01  -8.9054977e-01  -7.4238478e-01  -8.9083788e-01  -9.5198920e-01  -9.2558213e-01  -9.3718305e-01  -8.8261775e-01  -9.3044398e-01  -7.5932474e-01  -9.0848461e-01  -2.2626751e-01  -8.5080862e-01  -8.5080862e-01  -7.9643689e-01   2.2130212e-01  -7.7048900e-01  -6.7246413e-01  -1.4985538e-01  -7.3027517e-01  -6.9987958e-01
  -9.2039741e-01  -9.2457492e-01  -9.5633520e-01  -9.4367772e-01  -9.1698056e-01  -7.9914432e-01  -9.1466260e-01  -1.0000000e+00  -8.6804933e-01  -8.8205253e-01  -8.6091897e-01  -9.5634971e-01  -9.0023213e-01  -9.4438570e-01  -8.2718973e-01  -9.6278449e-01  -9.3283524e-01  -9.5082337e-01  -6.8189993e-01  -8.9620309e-01  -9.5831135e-01  -9.3351297e-01  -8.7617187e-01  -9.3019817e-01  -9.3739370e-01  -9.1727581e-01  -9.3386458e-01  -9.2236321e-01  -9.6261183e-01  -9.3226718e-01  -9.3238177e-01  -8.2695779e-01  -8.4578607e-01  -1.0000000e+00  -9.3566499e-01  -8.6462081e-01  -8.8850457e-01  -8.7754016e-01  -8.6030747e-01  -8.3437409e-01  -8.6762000e-01  -9.0885287e-01  -8.6984470e-01  -9.1039975e-01  -9.0002119e-01  -8.9121923e-01  -9.6249427e-01  -8.5351193e-01  -7.5420529e-01  -9.4832978e-01  -9.1402849e-01  -8.9996919e-01  -8.9291070e-01  -9.0011493e-01  -9.6861763e-01  -9.3711111e-01  -8.4377947e-01  -9.6216927e-01  -8.6089509e-01  -9.6975064e-01  -9.1952048e-01  -8.9888012e-01  -9.3467753e-01  -9.4205803e-01  -9.5494809e-01  -9.0609783e-01  -9.3656320e-01  -9.2003038e-01  -9.2940820e-01  -9.5679408e-01  -9.4573626e-01  -9.1307482e-01  -8.9622059e-01  -9.2365023e-01  -9.4546296e-01  -9.4153103e-01  -9.2796793e-01  -8.7082129e-01  -9.3233093e-01  -9.7297514e-01  -9.8538236e-01  -9.7696826e-01  -9.5268168e-01  -9.3196434e-01  -9.4243437e-01  -9.4863473e-01  -7.1537638e-01  -8.8330661e-01  -9.0217248e-01  -8.4561668e-01  -8.6946774e-01  -9.2179785e-01  -9.5472578e-01  -9.0823884e-01  -9.4169753e-01  -9.2239681e-01  -9.3627361e-01  -9.0199525e-01  -8.3852376e-01  -9.5662994e-01  -7.8366627e-01  -9.7715236e-01  -9.5669748e-01  -9.8167103e-01  -9.5589683e-01  -9.7103049e-01  -7.9480123e-01  -9.5993252e-01  -9.6245078e-01  -9.6795665e-01  -9.5011672e-01  -9.8329184e-01  -9.7123346e-01  -9.7728210e-01  -9.7518925e-01  -8.3320240e-01  -9.6416730e-01  -9.9834619e-01  -9.7681292e-01  -9.6519852e-01  -9.6100102e-01  -9.3573890e-01  -9.8135726e-01  -9.3876410e-01  -9.2433796e-01  -8.7974093e-01  -9.6101776e-01  -2.8937859e-01  -9.6008012e-01  -9.5657664e-01  -9.5424468e-01  -9.3360885e-01  -8.5679262e-01  -9.3851345e-01  -9.2813571e-01  -8.4765978e-01  -7.7696670e-01  -9.7610466e-01  -7.4333258e-01  -9.5174064e-01  -9.5528535e-01  -9.1784769e-01  -6.5348800e-01  -3.6061130e-01  -3.9345239e-01  -5.0364113e-01  -9.6107880e-01  -9.8353558e-01  -9.5597033e-01  -9.6416267e-01  -6.0748558e-01  -5.2412803e-01  -5.0807452e-01  -9.7681246e-01  -9.4251808e-01  -9.9477863e-01  -9.9552867e-01  -9.2538411e-01  -9.6398686e-01  -9.5210759e-01  -9.2529829e-01  -1.0000000e+00  -9.2555332e-01  -8.9292779e-01  -7.4944682e-01  -7.1188818e-01  -9.6702780e-01  -4.0304228e-01  -9.7435543e-01  -9.7942212e-01  -9.6828995e-01  -9.6457319e-01  -1.0000000e+00  -9.7402806e-01  -9.7899782e-01  -9.6663363e-01  -9.7885259e-01  -9.8632262e-01  -9.5442112e-01  -1.0000000e+00  -9.9714265e-01  -9.6266863e-01  -9.7287446e-01  -9.4195761e-01  -9.6826695e-01  -9.5926944e-01  -9.7531356e-01  -9.6987103e-01  -9.7693978e-01  -8.5603934e-01  -9.7886414e-01  -9.4910278e-01  -9.5130407e-01  -9.2395234e-01  -9.1614506e-01  -9.0399431e-01  -7.4945087e-01  -9.2586341e-01  -8.8035688e-01  -8.9449096e-01  -9.7400932e-01  -9.6776475e-01  -9.5851013e-01  -9.9620399e-01  -9.7044991e-01  -9.7714873e-01  -9.4453199e-01  -9.7699678e-01  -9.7056705e-01  -9.4794492e-01  -9.6863942e-01  -9.4436171e-01  -8.6857565e-01  -9.4359646e-01  -9.7504400e-01  -8.3266718e-01  -9.5013770e-01  -8.0323571e-01  -9.9349195e-01  -3.6390781e-01  -5.9404822e-01  -9.1670509e-01  -9.9320924e-01  -9.9581116e-01  -9.6207108e-01  -9.6097920e-01  -9.7685760e-01  -9.8180969e-01  -7.6999222e-01  -9.9457536e-01  -8.7775280e-01   6.6336800e-01  -9.7616664e-01   2.8138029e-01  -9.4831991e-01  -9.4867642e-01  -9.0483289e-01  -9.4659566e-01  -9.4247864e-01  -9.5648695e-01  -9.5240539e-01  -9.3776669e-01  -9.3231404e-01  -9.3268083e-01  -5.6205441e-01  -9.3881437e-01  -9.5936338e-01  -9.5938327e-01  -9.2800465e-01  -9.4467427e-01  -9.2714456e-01  -9.7327176e-01  -9.7019229e-01  -9.5078241e-01  -9.6866536e-01  -9.7734545e-01  -9.6027904e-01  -9.4096967e-01  -8.1225162e-01  -7.2032982e-01  -9.2125931e-01  -7.6087962e-01  -9.4782363e-01  -9.7360215e-01  -9.5507864e-01  -8.9036173e-01  -9.5744570e-01  -9.6765068e-01  -9.9627258e-01  -9.8236117e-01   3.2217285e-01  -9.3989809e-01  -9.7216479e-01  -9.5082812e-01  -9.5385266e-01  -9.7350204e-01  -9.4268197e-01  -9.7623874e-01  -9.6349639e-01  -9.5873860e-01  -9.7037416e-01  -9.7471003e-01  -9.5665361e-01  -9.5878042e-01  -9.7512205e-01  -9.7649391e-01  -8.5916237e-01  -9.8698990e-01  -9.8706287e-01  -9.6520011e-01  -9.2783337e-01  -9.4611732e-01  -9.6450927e-01  -9.1959552e-01  -9.8192612e-01  -9.5336740e-01  -9.4758275e-01  -9.5997882e-01   1.0000000e+00  -9.0406466e-01  -9.1833852e-01  -1.0000000e+00  -9.3798605e-01  -2.5364137e-01  -4.7243450e-01  -8.1785545e-01  -9.9653282e-01  -9.9448748e-01  -5.9297428e-01  -8.2997280e-01  -7.3406923e-01  -9.6901207e-01  -9.4960796e-01  -9.3465275e-01  -9.5618545e-01  -9.5033933e-01  -9.0588554e-01  -9.0638954e-01  -9.3300278e-01  -8.9867750e-01  -9.5330990e-01  -9.7197055e-01  -8.1632575e-01  -1.0000000e+00  -9.0061819e-01  -9.1655690e-01  -9.4598487e-01  -9.7207177e-01  -9.6598080e-01  -9.4974709e-01  -9.6784999e-01  -8.9964424e-01  -9.4272517e-01  -9.5400107e-01  -9.9243696e-01  -9.3051632e-01  -9.5193850e-01  -9.6130606e-01  -9.1709202e-01  -7.9790853e-01  -9.1106776e-01  -9.5495866e-01  -9.4492707e-01  -9.5138045e-01  -9.6361991e-01  -9.7018974e-01  -9.2654379e-01  -9.5909919e-01  -9.6576084e-01  -9.4636647e-01  -9.6426502e-01  -9.8392441e-01  -9.6964291e-01  -9.4552540e-01  -9.6665040e-01  -9.3555889e-01  -9.5430903e-01  -9.5465109e-01  -4.4781891e-01  -9.3255434e-01  -9.2944638e-01  -8.8635021e-01  -9.0228874e-01  -1.0000000e+00  -9.9884894e-01  -9.9117020e-01  -1.0000000e+00  -9.5988066e-01  -9.5356322e-01  -9.5023480e-01  -9.2403784e-01  -9.9380596e-01  -9.5444815e-01  -9.6079107e-01  -9.5128315e-01  -4.9684310e-01  -3.3090675e-01  -4.0734986e-01  -7.3385313e-02  -9.0666561e-01  -8.0900845e-01  -9.6106324e-01  -9.5218150e-01  -8.8390494e-01  -9.3052393e-01  -9.5132567e-01  -9.1453096e-01  -9.9846079e-01  -9.7180261e-01  -9.9610963e-01  -8.5908532e-01  -5.2490474e-01  -9.9015931e-01   2.5591955e-01  -9.8900143e-01  -7.9564748e-01  -5.3569491e-01  -9.6842018e-01  -9.5262483e-01  -9.6520180e-01  -9.7140532e-01  -9.5547402e-01  -9.8424455e-01  -9.6105513e-01  -9.6431400e-01  -9.8794018e-01  -8.6885671e-01  -6.3728109e-01  -7.1341047e-01  -9.6925001e-01  -9.7402212e-01  -9.6912953e-01  -9.7561405e-01  -9.7664415e-01  -9.6982266e-01  -9.7794337e-01  -9.5748899e-01  -9.8314236e-01  -9.7790296e-01  -9.7292285e-01  -9.5677688e-01  -9.5253855e-01  -1.0000000e+00  -9.6583121e-01  -9.2805905e-01  -9.8178476e-01  -9.0162288e-01  -9.3491543e-01  -9.0685216e-01  -9.5308554e-01  -9.7978968e-01  -9.6268299e-01  -9.6758048e-01  -9.7627302e-01  -9.7724150e-01  -9.0665754e-01  -9.6483196e-01  -7.6613072e-01  -8.5003933e-01  -8.5003933e-01  -7.9358837e-01  -4.7108409e-01  -8.3245873e-01  -8.6213301e-01  -1.0000000e+00  -7.8916757e-01  -7.3599213e-01
   4.6576480e-01   1.7966935e-01   4.0448452e-01   2.4115074e-02   2.2399282e-01   1.1974704e-01   3.5109325e-01  -5.3934853e-02   3.3674886e-01   1.7284361e-01   1.5953861e-01   3.3779223e-01   3.5743712e-01   4.7973486e-01   4.5375804e-01   5.0992499e-01   4.2652877e-02   4.2709227e-01   2.9111918e-01   1.5188454e-01   3.3173907e-01   3.2087922e-01   1.4357738e-01   9.4072881e-02   1.1179430e-01   1.8147733e-01   4.3194476e-02   3.0301045e-01   2.1807107e-01   1.1333945e-01   4.3221755e-01   2.6079762e-01   2.2043260e-01  -1.6115544e-01   2.9554356e-01   2.4392842e-01   3.5147954e-01   3.6713811e-01   2.5565244e-01   3.1971638e-01   3.6003759e-01   5.9785511e-01   2.7887347e-01   4.5792755e-01   3.9320254e-01   4.5539080e-01   3.2015045e-01   7.0712461e-02   1.0865224e-01   2.0515634e-01   3.7246648e-01   4.1180804e-01   2.1715912e-01  -5.8152153e-02   2.0551077e-01   6.0513682e-02   1.6526123e-01   4.7614278e-01   2.1120153e-01   3.6656067e-01   9.8003453e-02   1.1542620e-01   1.3229540e-01   4.5989084e-01   1.0763276e-01   2.2349502e-01   7.6423140e-02   4.1550764e-01   2.5472057e-01   6.5483845e-01   1.4563625e-01   6.1028798e-01   6.6468678e-01   8.1779589e-01   9.1300972e-01   8.2224815e-01   9.8742177e-03   1.8768580e-01   2.2884331e-01   3.5500790e-01   1.4974204e-01   1.1885898e-01   2.3000615e-01   3.2324075e-01   3.3609575e-01   3.7465677e-01   4.5906451e-02   5.1326419e-02   3.8023205e-01   1.3233921e-01   1.2940024e-01   7.0493432e-02   2.0205409e-01   2.2519947e-01   3.9346139e-01   4.1131025e-01   3.8697814e-01   6.1073799e-01   4.2817547e-01   5.3014334e-01   4.3391004e-01   4.7893640e-02   2.6632113e-01   3.5252291e-01   2.8559567e-01  -6.7494728e-02   1.0297740e-01  -8.3029846e-02   1.4645064e-02   5.3886069e-01   2.3086236e-01   4.1064122e-01   9.8724257e-02   1.4985753e-01   1.2582011e-01   1.8313398e-01   1.0450263e-01   1.1820588e-01   1.1493239e-01   9.7350349e-02   2.2921765e-01   2.2167908e-01   4.1212265e-01  -2.4469502e-02   1.2968299e-01  -1.4915863e-02   1.7283565e-01  -1.1920942e-01   8.0126718e-02   1.8299460e-01   7.4292587e-02   6.0230936e-02   2.2699550e-01   4.7516313e-01   6.5063309e-01   3.0453569e-01   2.8307086e-01   1.1340317e-01  -4.8451168e-02   2.4032440e-01   2.9175635e-01   1.1600364e-01   9.9492849e-02   3.3370037e-02   2.1966003e-01   4.2987195e-01   2.5052318e-01   2.3658498e-01   2.1999056e-01   2.2193394e-01   3.2456090e-04   4.4721107e-01   6.1636703e-02   2.3889076e-01   3.6038406e-01   1.3862733e-01   7.0003604e-02   1.0000000e+00   3.5758049e-01   5.6558619e-01   6.0566847e-01   2.0229303e-01   3.5378930e-01   3.4394893e-01   2.3862394e-01   4.2087185e-01   4.7879502e-01   9.4582621e-02   1.8736920e-03   8.2090013e-02   6.7112424e-02   2.2621895e-01   1.2172228e-01   1.2449001e-01   3.7366517e-01   1.7518921e-01   1.4763937e-01   3.4456619e-01   4.1534038e-01  -1.0000000e+00   8.2205501e-02   6.2409277e-02   5.6068393e-01  -4.0641794e-02  -3.5990419e-02   2.5680134e-02  -2.9789911e-02   2.5317741e-02   9.3407830e-02   6.6909324e-02   1.1270228e-01   4.2078026e-01   4.5552620e-01   3.7768733e-01   3.5043218e-01   3.3395325e-01   1.9826689e-01   1.5443723e-01   1.4448535e-01  -8.6072355e-02   4.8944978e-02   2.3251901e-01   2.2517557e-01  -1.5941914e-01  -9.9020941e-03   7.9308347e-03   5.4936412e-03   1.4936372e-01  -7.2285486e-02   3.2690052e-01   8.2197536e-02   1.8395435e-01   3.4632241e-01   1.9762971e-01   1.4143090e-01   1.4941549e-01   3.9887738e-01   5.7229644e-01  -1.6462804e-01  -1.8345655e-01   2.6973002e-01  -9.1675511e-02   6.9927939e-02   5.3792882e-01   2.5098115e-01   1.8832696e-01   1.1224431e-01   1.8649508e-01   2.9565506e-01   8.7725027e-02   8.5606421e-02   3.6617637e-03   3.0562287e-01  -3.7933802e-02   2.9369774e-03   4.7419940e-01   2.1337191e-01   1.3006927e-01   1.3538570e-01   1.6025543e-01   1.3613836e-01   1.0060790e-01   5.0547273e-01   5.0720505e-01   3.5695924e-01   2.2668090e-01   1.1998996e-01   1.9179558e-01   2.8212904e-02   1.4063044e-01   3.6413542e-01  -1.9072035e-01   5.1564364e-01   1.7847066e-01   4.8005145e-02   9.2336580e-02   1.2958741e-01   2.1986711e-01   1.5686247e-01   1.4360127e-01   8.2125854e-02   3.5623047e-01   2.9788119e-01   3.9826410e-01   5.7388938e-01   2.6716539e-01   1.3862334e-01   2.8462398e-01  -3.1897964e-01  -2.3091612e-02   4.0289556e-01   1.4499111e-01   6.8971978e-01   5.8545410e-01   6.1720929e-01   4.2528031e-01   1.1382928e-01   4.3800787e-01  -9.4180404e-02   2.6253791e-01   4.7827334e-01   3.9343750e-01   1.2447408e-01   7.6737745e-02   3.5751279e-01   4.2612058e-01  -1.9046149e-01  -1.1943244e-01   5.2766035e-04   1.3044361e-01   2.4068281e-01   2.9482674e-01   3.7860327e-01   2.0114214e-01   3.2820474e-02   6.1069219e-03   8.6078329e-03  -6.4932091e-03  -9.3478516e-01   1.7831137e-01   2.5220771e-01  -1.3094141e-01   4.8188134e-01   5.0111804e-02   1.2061121e-01  -9.3724426e-03   2.7451679e-01   1.6848693e-01   1.9790250e-02   2.4171424e-01  -1.6186429e-01  -6.2343569e-03   4.6254707e-01   1.5110401e-01   1.3299629e-01   2.2728223e-01   2.7076543e-01   1.5253765e-01   4.6711879e-01  -1.0692788e-01   7.7221002e-01   6.4337727e-01  -7.6936862e-02  -2.0216161e-01   1.7136616e-01   2.3407212e-01   4.0898854e-01   3.2873638e-01   2.2436317e-01   6.5254462e-01   2.3784340e-01   5.1952642e-01   4.3997913e-01   7.3918247e-02   1.4792211e-01   3.6091769e-01   1.7180422e-01   4.4500684e-02   1.2004970e-01   1.7847464e-01   1.5079338e-01   4.1127640e-02   3.3415237e-01   2.2693178e-01   2.5323914e-01   2.7124331e-01   2.6018434e-01   4.2135770e-01   5.5379448e-01   4.3250826e-01   2.9312230e-01   4.5420406e-01   4.9510670e-01   3.3415237e-01   3.0285713e-03   1.1900234e-01   9.4005181e-02   1.3732112e-01   8.6605989e-02   1.5521776e-01   3.0712023e-01   2.8613727e-01   1.3063078e-01   1.2396832e-01   2.1489316e-01   1.0455839e-01   1.0778209e-02  -5.7564758e-03   2.5382056e-01   2.6782248e-01   1.6558380e-01  -6.6750030e-02   1.2820155e-01   4.4007073e-01   2.9968121e-01   1.2691924e-01   2.8307883e-01   3.3524751e-01   1.2552940e-01  -2.4178791e-02  -8.0321256e-01   1.4798981e-01  -4.3819703e-02   6.4628438e-01   1.5622530e-01   3.7195674e-01   5.0064016e-02  -1.6360458e-01   3.2948108e-01  -1.7201130e-01  -6.9580480e-01  -7.8981596e-01   5.2061360e-01  -5.7897283e-02   5.7577302e-01   3.5605525e-01   6.0495164e-01   1.6423777e-01   4.0530488e-01  -4.6189197e-02   5.6336205e-02  -9.5237716e-03   1.8162866e-01   5.3297678e-02   3.1650263e-01   5.2107555e-01  -1.2702278e-01   1.5115179e-01  -7.8251035e-02   3.4858836e-01   3.5466541e-01   4.5850101e-01   5.0084127e-01   3.5183994e-03   1.2913741e-01   3.1799601e-01   5.2846280e-01   2.1696398e-01   6.2170138e-01   4.2698475e-01   3.5175432e-01   2.8477132e-01  -6.7765528e-02   2.5207231e-01   2.9565506e-01   2.4681164e-01   3.8255774e-01   2.1834585e-01   4.6874359e-01   3.4273830e-01   4.6190989e-01   2.4792669e-01   4.4679690e-01   8.1846094e-01   4.2813565e-01   3.9028348e-01   3.6241903e-01   1.4958673e-01   1.3319143e-01   1.3319143e-01   1.6239395e-01   4.8828893e-01   5.9529845e-01   2.7806705e-02  -7.4523762e-01   3.3962809e-01   2.3767216e-01
   5.1040801e-01   3.4254318e-01   5.6487909e-01   3.8612252e-01   3.7436439e-01   2.6313249e-01   4.5810290e-01   1.4907864e-01   4.6731137e-01   4.0590918e-01   2.8495723e-01   5.2618040e-01   5.5090548e-01   6.1444063e-01   5.7884032e-01   6.2466402e-01   1.4978825e-01   5.2351523e-01   4.6342912e-01   3.1750868e-01   4.9960290e-01   4.8539001e-01   3.6954975e-01   2.7785697e-01   3.6452057e-01   3.8214538e-01   2.2706598e-01   5.3345394e-01   3.6133143e-01   2.9310953e-01   5.4342153e-01   3.3283963e-01   4.5957988e-01   1.4053852e-01   6.3124444e-01   5.9685295e-01   5.5126029e-01   5.4958527e-01   5.5201116e-01   4.7878070e-01   4.8064550e-01   7.0317531e-01   4.3508172e-01   6.0613568e-01   6.1368564e-01   6.1953995e-01   4.7666836e-01   3.3005893e-01   3.4133436e-01   3.2785996e-01   4.9293171e-01   5.2875481e-01   3.4786528e-01   1.9050026e-01   3.6605531e-01   3.3295515e-01   4.5971190e-01   5.6078231e-01   3.2380856e-01   5.5623170e-01   3.1682795e-01   3.2528555e-01   3.4069076e-01   5.9665904e-01   4.4965355e-01   3.6335713e-01   2.9532501e-01   5.6773817e-01   3.6737140e-01   7.5970922e-01   3.9209647e-01   7.9549519e-01   7.8300682e-01   9.6910706e-01   9.4524425e-01   1.0000000e+00   3.3278600e-01   3.3240231e-01   3.5300585e-01   3.8923327e-01   4.7759251e-01   5.4096677e-01   3.6498677e-01   4.0766671e-01   3.0405078e-01   3.5583605e-01   1.6137723e-01   1.2420916e-01   2.3321733e-01   2.8411147e-01   4.7162268e-01   2.5383325e-01   3.5768022e-01   4.0502629e-01   3.8446400e-01   4.2779993e-01   4.2903763e-01   6.9104588e-01   5.9908080e-01   6.1500585e-01   5.8616336e-01   1.9251770e-01   4.0569052e-01   4.9773398e-01   4.0592156e-01   1.7916707e-01   3.1099839e-01   2.7307945e-01   3.8121711e-01   6.9168535e-01   4.0870638e-01   3.0884480e-01   2.7591791e-01   2.6257965e-01   3.1940236e-01   3.7396833e-01   3.0819294e-01   4.0720464e-01   2.9674836e-01   3.7563097e-01   4.5930759e-01   3.3408970e-01   5.6243257e-01   1.1504607e-01   3.6454945e-01   1.5171906e-01   3.8064777e-01   2.5758348e-01   3.6635236e-01   4.7472930e-01   1.3348777e-01   1.6892306e-01   3.4724231e-01   7.3641988e-01   8.1772837e-01   4.6297118e-01   4.0764608e-01   2.6993570e-01   2.2669054e-01   4.5392773e-01   4.7328532e-01   4.1944134e-01   3.8768202e-01   4.1260925e-01   5.3244315e-01   5.8871715e-01   4.8284035e-01   4.9687172e-01   4.6569411e-01   3.4993636e-01   3.0334117e-01   5.3786840e-01   3.1439793e-01   4.0364419e-01   5.7769339e-01   2.6571928e-01   2.1077375e-01   3.8684451e-01   6.5368803e-01   7.4184512e-01   7.6075302e-01   2.7292680e-01   3.5423942e-01   3.8206287e-01   2.5203034e-01   6.0741876e-01   6.9009285e-01   2.8086870e-01   1.6686435e-01   2.2375720e-01   2.4708780e-01   3.5053458e-01   1.5446262e-01   3.1002061e-01   4.6748052e-01   3.2295455e-01   3.5058822e-01   5.0453307e-01   5.1840354e-01  -1.0000000e+00   3.3082218e-01   2.2326624e-01   3.7162083e-01   2.9269696e-01   2.4106846e-01   2.8716445e-01   1.7910519e-01   3.2503388e-01   3.7395595e-01   3.6607594e-01   5.0764381e-01   4.4024292e-01   4.7571534e-01   4.6722886e-01   4.9945438e-01   5.0040328e-01   3.3189485e-01   4.9209833e-01   3.1944361e-01   8.2428611e-02   3.5824956e-01   3.7322158e-01   3.6291569e-01   1.8961324e-01   3.8824723e-01   3.6896390e-01   3.0655505e-01   1.5697928e-01   9.1162631e-02   3.7541643e-01   3.8513649e-01   3.0987208e-01   4.7642495e-01   3.4365711e-01   3.0799078e-01   2.9494957e-01   4.0339253e-01   5.8142711e-01   6.0286197e-02   2.5349495e-01   5.4630950e-01   3.6171718e-02   4.0526145e-01   4.5227334e-01   4.2357113e-01   4.8126847e-01   3.5598045e-01   3.9026881e-01   6.0316521e-01   2.8792770e-01   3.9537637e-01   1.8103187e-01   9.4325981e-01   1.7040004e-01   3.0363409e-01   5.8267306e-01   4.3537052e-01   3.4406142e-01   5.8388600e-01   4.3265171e-01   5.4654466e-01   4.4127433e-01   6.7640391e-01   6.7832647e-01   5.1531342e-01   2.9745385e-01   3.5171040e-01   4.0172164e-01   2.2464421e-01   2.3086983e-01   4.6925868e-01  -7.5272654e-03   6.1776179e-01   3.1202568e-01   4.1350452e-01   1.9333046e-01   2.7052154e-01   2.1016315e-01   4.1702783e-01   4.4473164e-01   2.0510096e-01   5.0121604e-01   4.1674729e-01   4.4596521e-01   7.1389790e-01   4.2024997e-01   3.9585495e-01   4.6745164e-01  -3.4426564e-02   1.8271926e-01   4.5021876e-01   1.6787102e-01   6.9604205e-01   5.1563934e-01   5.7756136e-01   5.7452488e-01   2.7410674e-01   6.9131404e-01   1.9858655e-01   5.7655470e-01   6.3524221e-01   5.2868468e-01   4.4928636e-01   3.9636241e-01   5.4395787e-01   5.4174239e-01   6.0337768e-03   1.7800363e-01   2.4207925e-01   3.5992458e-01   3.1880826e-01   3.7928630e-01   4.4413754e-01   3.5886016e-01   1.9493121e-01   2.7507215e-01   2.6842984e-01   2.1607109e-01  -9.9318441e-01   3.6589441e-01   3.6611307e-01   1.6978945e-01   8.0654371e-01   2.5881705e-01   4.1687931e-01   2.4160480e-01   3.6223495e-01   3.0456236e-01   1.9196487e-01   7.6458163e-01   9.3378111e-02   9.0754191e-02   6.1662311e-01   3.4455238e-01   3.3206400e-01   5.7927764e-01   4.1793135e-01   3.4515885e-01   6.0684529e-01   3.1939823e-01   7.7790338e-01   5.4044281e-01   2.3012721e-01  -1.6661475e-02   3.7386931e-01   4.4705851e-01   5.4548024e-01   5.4453546e-01   4.7482832e-01   7.6777489e-01   4.8972195e-01   7.9627494e-01   8.3762643e-01   4.2822075e-01   3.4760949e-01   6.8033566e-01   3.0358458e-01   2.0761762e-01   2.9869980e-01   3.4017093e-01   3.5280369e-01   1.8357328e-01   4.8832748e-01   4.6052466e-01   5.0320873e-01   4.0255915e-01   4.3080341e-01   5.5979627e-01   7.0999090e-01   5.5060431e-01   4.2659111e-01   4.2512238e-01   4.1216781e-01   5.0323349e-01   3.3626805e-01   4.2008907e-01   4.2946257e-01   5.0244961e-01   1.1718935e-02   3.2433252e-01   4.7616091e-01   3.8034247e-01   2.5821470e-01   2.7277828e-01   3.7658812e-01   3.2068544e-01   2.3354326e-01   2.0926788e-01   4.4120420e-01   3.2892438e-01   2.6423817e-01   1.3892126e-01   1.7067234e-01   4.9515545e-01   4.6689055e-01   2.5826834e-01   4.0795138e-01   5.2575958e-01   3.7079157e-01   1.7185228e-01  -8.4522589e-01   3.1532621e-01   1.2567790e-01   3.2544232e-01   2.1166489e-01   4.3951680e-01   4.1390471e-01   7.3405794e-02   5.1939369e-01   2.5686149e-01   3.3743561e-01  -6.8613634e-01   3.9680385e-01   4.6879248e-01   8.5113796e-01   3.3793069e-01   3.8039610e-01   3.4340957e-01   5.1502462e-01   3.8383278e-01   2.4317668e-01   1.5643056e-01   2.8223017e-01   4.1161909e-01   4.8194508e-01   5.8017703e-01   1.5827886e-01  -7.7580961e-02   1.7316424e-01   4.8914436e-01   6.5311044e-01   6.8118968e-01   6.1098746e-01   2.9176044e-01   4.4068849e-01   7.8616295e-01   7.2458749e-01   6.9364917e-01   5.7913324e-01   5.5296418e-01   4.1658639e-01   5.8123320e-01   1.7385322e-01   3.6509403e-01   3.6384396e-01   5.8121257e-01   5.7083654e-01   3.4026582e-01   6.2402866e-01   5.1949683e-01   4.9899231e-01   4.5506229e-01   5.4140409e-01   9.2395997e-01   7.1525524e-01   6.2211848e-01   4.5495089e-01   5.9542547e-01   2.4955082e-01   2.4955082e-01   2.6676720e-01   5.4446945e-01   6.0935370e-01   1.5843563e-01  -7.1530888e-01   4.7670962e-01   3.5140097e-01
   1.0173193e-02  -7.8197981e-02  -4.2694536e-02  -3.4645797e-01  -1.2737918e-01  -3.1145741e-02  -2.1647631e-02  -8.5516262e-02  -3.4573984e-02  -5.5718728e-02  -1.5935263e-01  -1.4950230e-01  -1.2422879e-01   1.3131813e-02  -5.1511695e-02   1.4734399e-03  -3.3924340e-02   6.8159805e-02  -6.3737528e-02  -9.3711171e-02  -4.7124640e-02  -1.9150805e-02  -1.9971275e-01  -2.5379367e-01  -2.5612221e-01  -1.8464570e-01  -1.8988981e-01  -1.6364967e-01  -7.5446777e-02  -4.0906058e-02   1.9021659e-02  -7.5889005e-02  -2.0905823e-01  -2.4442862e-01  -1.8819917e-01  -2.0866297e-01  -1.6017446e-01  -1.1282480e-01  -2.3136920e-01  -9.0682107e-02  -8.2862896e-02   4.0827788e-02  -9.9483611e-02   2.1980280e-02  -1.7100121e-02   1.6297850e-02  -1.2403312e-01  -1.7688910e-01  -1.1123982e-01  -2.6836957e-02  -1.2399398e-01  -1.1545860e-01  -6.6347845e-02  -1.6856114e-01  -6.6837035e-02  -1.8222323e-01  -2.8679637e-01  -3.3294263e-02   7.5165004e-02  -3.7567826e-02  -1.5859340e-01  -1.2172414e-01  -1.2116451e-01   7.2889292e-03  -2.7309514e-01  -2.2803880e-01  -1.7925287e-01  -2.0559672e-02  -3.0863968e-02   9.3284597e-02  -1.1663265e-01  -4.9077486e-02   4.3985997e-02   7.9869054e-02   1.2368873e-01   6.9087309e-02  -2.5656053e-01  -7.0535311e-02  -7.8421052e-02   1.9698111e-01   9.3122186e-03  -9.1546995e-02   1.0689777e-02   3.0104745e-02   1.8268503e-01   2.0656532e-01  -1.2055596e-02  -1.3902776e-02   4.8604146e-01   4.7429894e-02  -2.7361173e-01  -4.0675160e-02   1.2767856e-02  -1.3382278e-02   1.4079472e-01   1.1067236e-01   3.6413338e-02   2.2344237e-02  -4.1493086e-02   1.2263990e-01  -2.5459398e-02  -1.0826555e-01   1.7867758e-01   1.5305577e-01   1.7456447e-01  -2.1407536e-01  -1.2806013e-01  -2.3479353e-01  -3.6586120e-01  -6.6883997e-02  -1.8074783e-01   3.0414892e-01  -7.5842042e-02   3.3094674e-02  -2.9948205e-02  -7.3850061e-02  -1.1610041e-01   2.5601263e-01  -7.7747926e-02  -2.7815141e-01  -2.4024115e-01  -6.1209395e-02  -1.0189434e-01  -1.1925080e-01  -3.2173627e-01  -2.4065990e-01  -2.5181734e-01  -3.1076276e-01  -1.5078593e-01  -1.4820301e-01  -5.0153704e-02  -9.6571953e-02  -3.4511368e-02   9.1190864e-02   1.3100505e-02  -1.4184550e-02   2.1056689e-02   4.8036490e-02  -1.7045137e-01  -1.4113911e-01  -1.0303709e-01  -2.4753204e-01  -2.5870122e-01  -3.2231939e-01  -2.6209424e-01  -6.7862377e-02  -1.5654663e-01  -1.7144540e-01  -1.6156376e-01  -1.4458496e-02  -2.7150625e-01  -6.8427881e-03  -2.4054641e-01  -2.3663093e-02   1.5755241e-01   1.5476598e-01   1.7911981e-01   1.0000000e+00  -1.1793585e-01  -3.3497766e-02  -4.2033151e-02   1.9531004e-01   2.3440218e-01   2.2524063e-01   6.6594397e-02  -7.1490209e-02  -5.2126117e-02  -1.7368393e-01  -8.3853016e-02  -5.9628333e-02  -5.6141388e-02  -9.8561977e-03   1.2673344e-01   1.3194430e-02   1.4842217e-01   6.5766688e-03  -8.0459995e-02  -5.3444973e-02  -2.7365282e-02  -1.0000000e+00   2.7417136e-01  -3.8158768e-02   4.7749042e-01  -3.0421936e-01  -1.7146497e-01  -1.4034858e-01  -1.2969989e-01  -1.1965389e-01  -1.9884003e-01  -2.2154627e-01  -1.8825788e-01   1.2367307e-01   1.1430411e-01   9.1942260e-02  -4.6394768e-03  -1.3486574e-01   9.8536540e-02  -1.0127600e-01  -5.0087174e-02  -2.1054928e-01  -2.2936940e-01  -9.5660103e-02  -6.6355672e-02  -2.5245524e-01  -1.9837041e-01  -1.8947890e-01  -1.5937219e-01   1.0233657e-01  -2.0011193e-01   1.0323276e-01  -2.4618970e-01   5.5585668e-02   4.7414240e-02   4.2988050e-02   7.4237500e-02   4.7410327e-02   1.9358418e-01   1.7398136e-01  -1.8508793e-01  -4.0994308e-01  -1.3879100e-01  -1.8099047e-01   9.6560212e-02   6.3695458e-01   1.3258416e-01  -8.0667411e-02  -7.7951429e-02  -6.6613965e-02  -2.0610352e-01   5.7683314e-02  -1.4218010e-01  -1.3838399e-01  -6.2755235e-02  -2.5640399e-01  -2.7710650e-01   8.4213060e-02  -8.6651182e-02  -7.8131451e-02  -2.3003078e-01  -1.8707991e-01  -2.6010617e-01   1.7863258e-02  -1.1600257e-01  -4.1066512e-02   8.5510391e-04   4.1502870e-03  -9.1734843e-02   2.4557332e-03  -9.4673896e-02  -4.6447601e-02   2.0367910e-02  -2.1377402e-01   1.5852296e-01  -1.0873126e-01  -1.6980564e-01  -3.7070809e-02  -2.4445797e-02   6.6367413e-02  -5.7914212e-02  -1.4958448e-01  -2.7271357e-02   5.1482343e-03   1.5045524e-02   7.7497461e-02   2.2015501e-02   3.6659890e-02  -1.9094647e-01  -3.2969441e-02  -1.6741056e-01  -1.5155298e-01  -1.1994936e-03   1.3566214e-02   2.6059145e-01   2.1883029e-01   2.0543823e-01  -4.5191361e-02  -1.0684885e-01   2.2532086e-02  -2.9216963e-01  -2.1109326e-01  -2.6429951e-02  -4.1027377e-02  -2.2652427e-01  -2.4502347e-01  -2.2524259e-02   1.2229747e-03  -1.7909633e-01  -2.8732861e-01  -1.9365462e-01  -1.8298637e-01   1.0628139e-01  -8.2320873e-03   2.9161587e-02  -2.3396974e-02   1.3049629e-02  -7.4570149e-02  -1.6265955e-01  -1.5552129e-01  -8.6607938e-01  -7.3750267e-03   1.6023904e-02  -1.4480999e-01  -1.2910895e-01  -1.7263120e-01  -1.5017934e-01  -2.0364192e-01   8.4553536e-02   1.0430507e-01  -1.9748595e-01  -1.3963632e-01  -3.1370964e-01  -8.8917110e-02  -3.2296316e-02  -1.3186603e-02  -6.9318206e-02  -1.5427679e-01  -4.2193606e-02  -5.1323846e-02   1.7663473e-01  -3.3897141e-01   2.2954942e-01   1.2858845e-01  -3.3928449e-01  -2.9642754e-01  -2.2384742e-01  -2.1792235e-01   1.7822753e-01   6.3612295e-02  -8.4389168e-02   1.9152567e-01  -2.8355402e-02  -1.0734587e-01  -2.4605664e-01  -2.4203354e-01   2.3721796e-02   1.0963724e-02   2.1236711e-02  -5.2431372e-02  -1.4706026e-01  -2.1774624e-01  -1.9414381e-01  -6.4555454e-02  -3.6006332e-02  -1.5082507e-01  -1.2394310e-01  -1.6810521e-02  -9.8970940e-02  -5.9503101e-02  -5.3433232e-02  -1.5791049e-03   1.9260580e-01   3.9214439e-01   4.5993046e-01   7.4918452e-02  -2.2478275e-01  -1.5431593e-01  -1.7666212e-01  -2.3307550e-01  -1.3605349e-02  -1.3548799e-01  -7.7008271e-02  -4.1853130e-02  -3.6914268e-02   2.4592749e-01   3.6428014e-01   8.6455506e-02  -1.9567595e-06  -2.2965508e-01  -1.5766199e-01  -1.3690468e-01  -1.4544007e-01  -8.0064730e-02  -4.0876706e-03   7.1928523e-02  -1.5159603e-01  -7.6323405e-02  -8.7981779e-02  -2.3204624e-01  -2.7284468e-01  -7.6382108e-02  -8.5937943e-01  -9.4752167e-02  -8.6921215e-02   4.9132079e-01  -2.7333974e-02  -1.9821974e-03  -1.8655941e-01  -1.5804160e-01   1.5177214e-01  -2.0493730e-01  -8.6392303e-01  -8.1798614e-01   4.8195574e-01  -3.2503928e-01  -2.3025189e-02   1.4954926e-01   4.5492898e-01  -8.4921407e-02   1.4442842e-02  -3.4654407e-01  -6.2551732e-02   1.0674123e-02   4.0581236e-02  -1.8228976e-01   2.0627181e-01   1.9851130e-01  -3.7409524e-01   8.0233011e-02  -2.1096020e-01   3.4554416e-02   7.1188868e-02   1.4709548e-01   6.8030658e-02  -1.7856409e-01  -3.3162182e-01  -1.3143554e-02   1.0045808e-01   1.8876859e-02   2.6785494e-01  -2.4637559e-02   1.0544977e-02  -4.9304470e-02  -7.2985174e-02  -6.7893685e-02  -7.1715237e-03  -2.3441001e-01  -1.0272009e-01  -5.8829975e-02  -2.0520537e-02  -7.4660160e-02   1.8700751e-02  -1.1012838e-01   1.2063618e-01   1.7734112e-02  -1.1734883e-01  -3.4949682e-02  -9.6654137e-02  -4.1428708e-01   7.4632765e-02   7.4632765e-02   7.9438567e-02   8.1211391e-02   5.1012134e-01   1.1088369e-01  -7.8260793e-01   4.5199188e-02  -2.5314598e-02
   3.8595480e-01   4.2301234e-01   4.5459248e-01   3.5136141e-01   3.5109366e-01   4.5247776e-01   4.1776638e-01   4.8055908e-01   4.2855328e-01   5.3698040e-01   2.8582774e-01   3.6404974e-01   3.9733164e-01   4.8782447e-01   4.0479670e-01   4.5313578e-01   4.0143855e-01   5.0572245e-01   4.4745417e-01   4.0880378e-01   4.5961155e-01   4.8804683e-01   3.5778726e-01   2.4814395e-01   3.2486386e-01   3.4418225e-01   3.2517244e-01   3.9684607e-01   4.0088038e-01   4.8951715e-01   4.6908241e-01   3.1683609e-01   3.5618079e-01   4.4056090e-01   4.8116264e-01   4.7948357e-01   3.6249773e-01   3.9901979e-01   3.8852332e-01   4.0153839e-01   3.6704030e-01   4.8785624e-01   3.8751588e-01   5.1363224e-01   5.5254583e-01   5.2510437e-01   3.5899891e-01   4.3319114e-01   4.7626157e-01   4.3062716e-01   3.1917771e-01   3.2391087e-01   3.9636504e-01   4.4486295e-01   4.3202487e-01   4.4489018e-01   3.3079506e-01   3.8207479e-01   5.3204756e-01   4.9424124e-01   4.0212380e-01   4.3393084e-01   4.3134870e-01   4.8404429e-01   4.0786440e-01   2.2390180e-01   3.8000091e-01   4.7039844e-01   4.1358232e-01   5.4643311e-01   4.8345435e-01   4.6815665e-01   5.0478762e-01   5.7690597e-01   5.1269287e-01   5.8965329e-01   4.2236341e-01   4.0945271e-01   3.7456889e-01   5.6733981e-01   7.4191323e-01   7.3928118e-01   4.8806045e-01   4.4803957e-01   4.6516155e-01   5.1083681e-01   4.3871846e-01   3.7939735e-01   6.2037575e-01   5.5638501e-01   4.0682066e-01   4.9735887e-01   5.1692685e-01   5.1643220e-01   4.5674805e-01   4.5692503e-01   4.0731530e-01   4.3974406e-01   4.6586949e-01   5.5471955e-01   4.6278363e-01   3.6831548e-01   6.8313215e-01   6.6022872e-01   6.5296787e-01   3.8779270e-01   4.2521782e-01   5.1139499e-01   3.3311853e-01   4.1576965e-01   3.2026230e-01   5.0661191e-01   4.4670085e-01   4.8449356e-01   5.2007624e-01   4.6241151e-01   4.3318660e-01   1.0000000e+00   4.4981848e-01   3.2917952e-01   3.0855418e-01   3.7967871e-01   3.7559902e-01   3.5089853e-01   2.2462788e-01   2.4702759e-01   2.7371574e-01   4.8221547e-01   4.9849337e-01   4.9522599e-01   3.1942276e-01   3.3410782e-01   4.1870122e-01   7.2197767e-01   5.1925032e-01   4.8952623e-01   4.8639045e-01   5.6110002e-01   4.7765021e-01   4.0706571e-01   4.1212561e-01   3.9421401e-01   3.6409058e-01   4.2380196e-01   3.7797695e-01   4.2308949e-01   4.0952532e-01   4.2449628e-01   4.2111545e-01   4.5110274e-01   3.7325286e-01   4.1745780e-01   3.5051733e-01   4.8580958e-01   7.5591759e-01   6.4047468e-01   6.8887729e-01   6.1000181e-01   5.1753948e-01   4.7741423e-01   4.4484480e-01   6.0660283e-01   5.6296515e-01   6.0243692e-01   3.9297967e-01   4.4711835e-01   4.9547105e-01   3.4366945e-01   4.2536758e-01   4.1917771e-01   4.7482756e-01   4.5157470e-01   4.7461427e-01   5.5990198e-01   5.9081049e-01   5.0051733e-01   4.7150118e-01   4.4292521e-01   4.0765565e-01  -1.0000000e+00   9.6533400e-01   4.7056635e-01   5.8673988e-01   3.8320476e-01   4.7696950e-01   4.8608187e-01   4.3413505e-01   5.6259303e-01   4.3012797e-01   4.2822200e-01   5.7932928e-01   4.7539935e-01   4.6836540e-01   5.2380196e-01   4.8531040e-01   3.5729261e-01   5.8837357e-01   6.1278816e-01   4.7256762e-01   2.8835088e-01   4.3339989e-01   3.7463696e-01   4.0432020e-01   4.9650118e-01   5.9767653e-01   5.5725177e-01   5.1789798e-01   4.1613269e-01   2.9412325e-01   4.8345889e-01   3.9990470e-01   5.2706480e-01   5.2270376e-01   5.3914050e-01   6.0393447e-01   5.4279815e-01   5.2909330e-01   5.3034580e-01   4.0401162e-01   4.0952078e-01   4.8054547e-01   2.6231621e-01   8.7787257e-01   8.7976947e-01   6.7488201e-01   5.7908423e-01   5.2934289e-01   4.8641314e-01   4.2426030e-01   6.3435288e-01   5.3610909e-01   3.7220004e-01   9.8676711e-01   2.8587312e-01   3.6989018e-01   5.3839172e-01   4.8328644e-01   4.8901797e-01   5.8202941e-01   4.2695589e-01   4.9828462e-01   7.7883010e-01   3.7961971e-01   4.6616446e-01   5.0387094e-01   4.0013614e-01   4.9670539e-01   5.7499546e-01   4.5408876e-01   3.6673625e-01   4.6252496e-01   3.1173080e-01   6.1385460e-01   3.5200581e-01   5.8042294e-01   3.9028862e-01   4.5735614e-01   3.6268833e-01   5.7200490e-01   5.1674986e-01   4.3064077e-01   4.9197676e-01   4.7259938e-01   4.5837266e-01   5.0293610e-01   5.3949446e-01   4.0662098e-01   4.9509893e-01   5.4628789e-01   4.0345344e-01   3.6651389e-01   3.4390089e-01   6.2158286e-01   4.8327283e-01   5.0701579e-01   4.3875930e-01   3.8855055e-01   6.3276911e-01   3.5597658e-01   4.3315484e-01   4.6758032e-01   4.2844436e-01   4.4446360e-01   4.2210474e-01   5.0847250e-01   4.5351243e-01   3.7263115e-01   3.7250862e-01   3.9818933e-01   3.8391269e-01   5.2118806e-01   4.0570884e-01   4.2640679e-01   4.7882556e-01   5.3157560e-01   5.7961064e-01   4.5884462e-01   4.1995825e-01  -8.0711563e-01   5.3580051e-01   4.6735796e-01   5.6023325e-01   5.1886458e-01   3.7728717e-01   5.0922581e-01   3.9880196e-01   5.1071882e-01   5.9582955e-01   3.1531585e-01   7.7249501e-01   2.9150935e-01   3.2562625e-01   4.5815938e-01   5.3819205e-01   4.8077691e-01   5.5158831e-01   4.4236250e-01   4.9252587e-01   6.7827646e-01   4.7767290e-01   5.9417771e-01   3.6293338e-01   3.0964331e-01   2.1841986e-01   3.0163369e-01   3.1660011e-01   6.7713741e-01   6.4548920e-01   5.2055273e-01   6.6615084e-01   5.8716192e-01   4.9545290e-01   4.5243692e-01   4.6792068e-01   5.8971229e-01   7.0147940e-01   4.9617898e-01   4.5721547e-01   3.6582411e-01   2.6191686e-01   3.3634507e-01   4.1515248e-01   4.5606281e-01   4.1925032e-01   4.6869668e-01   4.5229170e-01   4.0468778e-01   4.1077782e-01   4.3428481e-01   4.5315393e-01   6.9083772e-01   6.9735433e-01   6.9824378e-01   6.0117081e-01   4.7723725e-01   5.0673897e-01   5.2497731e-01   4.8090851e-01   1.8051824e-01   3.6548829e-01   4.2716010e-01   3.7934743e-01   4.2549011e-01   7.7173262e-01   9.2733709e-01   6.8957161e-01   6.0456979e-01   3.2143765e-01   3.5709748e-01   2.3682610e-01   2.6907787e-01   4.9191777e-01   3.5000454e-01   4.6277909e-01   3.4003449e-01   3.8710292e-01   3.6444001e-01   2.7397894e-01   3.0510982e-01   4.7841260e-01  -7.6243420e-01   4.1021057e-01   4.3116264e-01   4.3015066e-01   3.4462244e-01   3.9443638e-01   5.5613995e-01   4.5416591e-01   7.1625976e-01   6.7873934e-01   8.5042657e-01  -4.9335633e-01   6.7019877e-01   5.9371937e-01   5.9126883e-01   4.5075785e-01   5.2170085e-01   4.3564168e-01   4.6034671e-01   4.4809857e-01   4.7724179e-01   5.3619078e-01   4.7696950e-01   5.5382102e-01   7.4804411e-01   6.0766927e-01   2.5417952e-01   9.5652568e-02   4.0196043e-01   5.2037121e-01   7.5273643e-01   7.4376929e-01   5.2210928e-01   4.7731893e-01   3.0182429e-01   8.5375749e-01   6.5481031e-01   9.3213378e-01   5.6825195e-01   4.3660828e-01   4.0447903e-01   6.1085950e-01   5.5261844e-01   3.7298965e-01   3.8738428e-01   4.2794972e-01   4.1574242e-01   3.9361499e-01   4.7388818e-01   4.3790162e-01   3.8588219e-01   4.3561899e-01   5.6221637e-01   4.6356417e-01   5.0179706e-01   5.4287076e-01   3.1845616e-01   3.2011254e-01   5.3535578e-01   5.3535578e-01   5.2066165e-01   4.7221365e-01   8.8776548e-01   5.8645852e-01  -5.4931022e-01   5.2971501e-01   4.2196860e-01
   8.0692148e-02  -1.0303362e-01   1.9629832e-01  -1.2305333e-01  -1.0443544e-01  -9.7032089e-02  -3.8002409e-02  -3.0785237e-01  -4.8286059e-01   2.1658088e-01  -2.4240499e-01  -2.1283540e-01  -1.2075348e-01  -4.9830249e-02   3.2898916e-02   1.0362501e-01  -2.1581426e-01   1.7505202e-01   3.8966159e-02  -1.7478918e-02   1.2804731e-01   2.0976892e-01   4.6150476e-02  -1.4935932e-01   9.0745811e-02   1.5667506e-01   5.9095389e-02   1.6659731e-01  -1.8249918e-01   6.9718541e-02   3.4517578e-01  -2.0183989e-01  -2.2334903e-01  -1.5481327e-01   1.0929800e-01   5.7605958e-02  -1.0890374e-01  -1.3308509e-01  -1.0441354e-01  -5.8701128e-02  -9.1950498e-02   1.2487132e-01  -1.2763115e-01   2.7620195e-02  -3.3052240e-02  -3.2307524e-02  -6.6257803e-02  -8.7657431e-02  -1.9691162e-01  -1.7892892e-01   3.4563575e-02   4.5121016e-02  -2.4225167e-02  -1.8203921e-01  -1.8171066e-01  -3.4103603e-02  -6.0803855e-02   6.3892235e-02   1.2616362e-01  -5.1122550e-02   3.4892126e-02   2.1903406e-03   1.9515935e-02  -1.4270069e-01  -2.3403789e-01  -4.3204468e-01   3.1891359e-02  -2.3373125e-01  -9.3899901e-02   2.5541562e-01   1.8565327e-01   6.8995729e-03   1.6946665e-01   1.7251122e-01   1.7242361e-01   1.6596211e-01  -1.3915234e-01  -4.2054540e-02  -1.3740007e-01   4.3660059e-01   5.4309495e-01   4.0692148e-01   2.9773300e-01   2.6853576e-02   4.7639908e-02   1.9997810e-02  -1.0474209e-01  -2.0764429e-01  -4.8340817e-02   3.1448910e-01   2.1283540e-01   9.5958822e-02   1.8878546e-01   2.3852809e-01   1.8136020e-01   1.4668711e-01   2.9011061e-01   2.0654912e-01  -7.1492717e-02  -1.6887526e-01  -1.7264265e-01  -1.5790165e-01   1.0640675e-01   3.2697404e-01   1.2296572e-01  -1.1764319e-01  -2.6654255e-01  -1.5577702e-01  -2.7876465e-01   4.3795860e-01   3.5741978e-01  -1.5006023e-01   2.2538605e-02   2.1771986e-02   1.4583288e-01   1.2798160e-01   1.3418026e-01  -2.1163071e-01  -1.5062972e-01  -1.1483956e-01   1.3389552e-01   3.3950279e-02   4.6369511e-02  -1.6488884e-01  -1.1170737e-01  -1.0855328e-01   7.8173256e-02   1.0250794e-01   3.8039645e-01   4.4139744e-01  -2.5193298e-01  -7.8939875e-02  -1.0419450e-01   4.2236338e-01   4.4078414e-01   2.6853576e-01   2.5747454e-01   9.6484503e-02  -1.1087504e-01  -1.5770452e-03   3.8024313e-02   1.0942942e-01  -3.3304129e-01  -1.4300734e-01  -1.0071186e-01  -1.0371263e-01   1.3152995e-01   1.4782609e-01   8.3451977e-02   8.7876465e-02  -2.7624576e-01  -2.2126821e-01  -1.2585697e-01   2.6301610e-01   3.2975578e-01  -7.9509364e-02  -2.1454386e-01   4.0127040e-02   1.5790165e-01   3.4381776e-01   3.0478589e-01   2.3539590e-01   3.2717117e-01   6.3257036e-01  -7.4252546e-02  -1.5200964e-02   1.1996495e-01  -2.0201511e-01  -1.6558975e-01  -8.5160442e-02   1.3010623e-01   9.0680101e-03  -1.5709123e-01  -5.4079509e-02   5.1297777e-02  -2.3765195e-02   1.6226043e-01   2.3395028e-01   1.5034498e-01   3.2511226e-01  -4.2650312e-01  -1.0708575e-01   2.5499945e-01  -2.0201511e-01  -9.5236009e-02   4.8559851e-02   1.9603548e-02   1.6488884e-01  -1.5047640e-02  -2.8169970e-01  -7.8392290e-02  -9.3220896e-02  -6.2753258e-02  -1.4401489e-01   1.9688972e-01  -9.8302486e-02   2.0753477e-01   4.8340817e-02   3.2826635e-01  -5.5886540e-01  -1.3991896e-01  -3.1606615e-02   1.5901873e-02  -4.5252437e-02   1.5709123e-01   3.3648012e-01   1.8992443e-01  -1.2592268e-01  -2.2205673e-01   6.3519877e-04  -9.1775271e-02  -2.6341036e-01  -2.2269193e-01  -9.9244333e-02   3.1337203e-01   1.0515825e-01   8.8248823e-02   7.7450443e-02  -2.3208849e-01  -2.8178732e-01  -2.8579564e-01  -2.1988829e-01   1.2846348e-01   7.4471580e-02   1.0712956e-01   1.1961450e-01   3.9897054e-01   3.5398094e-01   2.6568832e-01  -2.9941956e-02  -3.0401927e-02  -5.0774285e-01   3.6596211e-01  -2.8614610e-01  -3.0601249e-01  -1.6234804e-01   1.0217939e-01  -1.4664330e-01   6.7572007e-02  -1.0344979e-01   1.0645055e-01   3.5433140e-01   1.8972730e-01   2.0173037e-01   4.1671230e-01  -8.2751068e-02   4.8174351e-01   8.8971635e-02   4.9676925e-02   1.3288796e-01   1.9969335e-01  -5.6740773e-01   2.5644508e-01   2.6437411e-02   1.0259555e-01  -3.7783375e-02  -2.2054540e-01  -6.9674734e-02   2.5245866e-01   2.4748658e-01  -2.7839229e-02  -6.9915672e-02  -1.8427335e-01  -2.8623371e-01  -1.5529515e-01  -4.2295477e-02   1.5814259e-02   1.9980287e-01  -1.9369182e-01  -2.3548352e-01  -2.4976454e-01  -2.4006133e-02   3.2452086e-01   3.5597415e-01   3.8333151e-01   3.6451648e-01  -1.2717117e-01   4.5953346e-01  -4.3730150e-01  -1.0778666e-01  -1.0647246e-01  -8.8708794e-02  -8.9146862e-02   1.1221115e-01   2.6980615e-01   2.0637389e-01  -2.3565875e-01  -1.2747782e-01  -3.4629285e-02   3.4186836e-01   4.5296244e-02  -1.1564998e-02   7.9969335e-02  -1.4719089e-01   1.5382762e-01   1.7739568e-01   1.3980944e-01  -3.1321871e-03   5.5284197e-02   8.2006352e-02   4.1552952e-01  -3.0292410e-02   3.7139415e-01  -8.9979192e-02   4.0409594e-01   4.3690724e-01   5.2373234e-01   7.4887745e-01  -2.2356807e-01   2.1817983e-01  -4.6601687e-01  -4.2983244e-01  -1.6475742e-01   2.7488775e-02   1.9649546e-01   3.8208301e-01   2.8577374e-01   1.7590625e-01   7.5873398e-02  -2.3239514e-02   3.2622933e-01   1.4524149e-01   1.4657759e-01  -2.3294272e-01   1.5409046e-01   1.3715913e-01   4.9403132e-01   4.6853576e-01   1.3821049e-01   5.3919615e-01   2.9508269e-01   3.4239404e-01   3.1968021e-01  -1.9778776e-02  -3.6745154e-01   1.8574088e-01   7.2018399e-02  -1.1580331e-01  -4.7333260e-02   5.1451101e-02  -6.3476070e-02  -8.5313766e-02  -1.5441901e-02  -6.5994962e-02  -2.6213996e-01   1.1992115e-01   1.0467638e-01   1.0005476e-01   5.7518344e-02   1.1698609e-01   9.8221443e-01   8.3714818e-01   9.7365020e-01   1.0000000e+00   1.6484503e-01  -7.9137006e-02   6.5710218e-03   1.5419998e-02  -1.0000000e+00   3.3146424e-01   3.1006461e-01   8.9015442e-02   1.3262512e-01   2.1750082e-02  -7.9903625e-02   2.5543752e-01   2.1837696e-01  -2.2356807e-01  -1.3932756e-01  -1.1834410e-01  -5.1473004e-02   2.3349031e-02   1.9239952e-01   2.2188150e-01   3.3683058e-01  -1.5025737e-01  -1.8493046e-01  -1.8871975e-01  -4.9676925e-01  -1.3643632e-01  -3.9763443e-01  -2.2026065e-01  -1.1179498e-01  -2.2260431e-01  -1.5910634e-01   3.3205564e-02  -2.1846457e-01   5.2305334e-02   2.6649874e-01   5.2633885e-02   1.1168547e-01   3.5608367e-01   4.0416165e-01   3.4716899e-02   4.5859161e-01   2.3421312e-01  -6.4155076e-02   7.9071296e-02   2.7232505e-01   1.2145439e-01   9.2629504e-02   6.9265141e-01   3.6471361e-01   1.8705509e-02   5.8948636e-01   5.6318037e-01  -3.1659183e-01  -4.5721170e-01   1.7717665e-01   1.2679882e-01   1.1091885e-01   1.4180265e-01   1.9734969e-01   3.1492717e-01   1.1321871e-01   8.1439054e-01   9.5187822e-01   3.9106341e-01   3.9303472e-01   5.0839996e-01  -8.6430840e-02   9.4484722e-01   4.1202497e-01   6.6761581e-02   4.4595335e-02   1.7960793e-01   5.1473004e-02  -2.6787866e-02   1.7102179e-01   2.1618662e-02   3.4500055e-01   1.4083890e-01   4.6505312e-01   5.9336327e-02   2.8141496e-01   3.6427554e-01   1.3501259e-01  -5.6626875e-01  -3.2714927e-01  -3.2714927e-01  -3.2283430e-01   1.4237214e-03   3.2066586e-01   1.1797175e-01  -7.5374001e-01  -7.7143796e-02  -1.6953236e-02
  -1.8728599e-01  -9.3398409e-02   4.2957332e-01  -7.3913521e-01  -6.0869732e-01   2.6544319e-01   1.8919870e-01  -1.8082785e-03  -5.0172858e-01   2.7724922e-01  -9.6597249e-02   2.0166428e-01   1.8094327e-01   1.8243826e-01   1.2471625e-01   6.4911153e-03   2.3371862e-01   8.1894680e-04   2.1617447e-01   2.2688124e-01   3.2806789e-01   2.5363717e-01   1.1073370e-01  -3.6354093e-01   8.1933154e-02   1.3043239e-01   1.3570883e-01  -3.4465568e-01   1.3780841e-01   1.0168681e-01  -1.8515343e-01   7.5304632e-02   2.7278074e-02   1.3311458e-01   9.3367080e-01   9.8900743e-01   1.2928917e-01   1.1062377e-01   1.3602761e-01   2.9189133e-01  -1.9880621e-01   4.8115048e-01   3.3410281e-01   2.4991068e-01   1.6294843e-01   1.6610330e-01  -5.3723460e-01  -5.0659829e-01   2.2490258e-01  -3.4157776e-01  -2.0676483e-01  -1.3072919e-01  -4.8768557e-02   7.0654773e-02   1.3971013e-01  -7.2435020e-01  -3.6445881e-02  -3.5394441e-01  -3.3543841e-02   3.6731688e-02   1.2601338e-01   4.8098010e-02   1.9399146e-01  -5.3135357e-01   2.8563655e-01  -2.1256891e-01  -7.1919468e-01   8.2416827e-02   4.1473335e-01   2.8042607e-01   2.3348778e-01   2.3924789e-01   1.0313783e-01   1.5230212e-02   1.2324325e-01  -9.6899544e-03   1.7388604e-01   2.3203676e-01   2.6321170e-01  -4.1976795e-01  -8.1464321e-01  -7.1776565e-01  -6.7741740e-02   1.3905607e-03   1.7474346e-01   3.8194250e-01  -2.5046031e-01  -1.3686305e-01   3.0724246e-03  -1.9682754e-01   4.0809933e-02  -4.3887854e-02  -1.0254423e-01   7.1567156e-02   2.1691098e-01   1.9200180e-01   2.3592813e-01   2.5801221e-01  -2.0588542e-01  -2.2124205e-01  -1.0437999e-01  -2.1883468e-01   3.3675752e-02  -1.9989997e-02   1.7305060e-01   2.8168472e-02  -2.0968336e-02  -2.8987969e-01  -1.3249900e-01   6.2828060e-02  -2.2881044e-02  -9.9125541e-02  -2.0381882e-01  -1.4097427e-01   1.8861609e-01  -4.6917957e-01  -3.4649145e-01  -7.7182713e-01  -1.4378837e-01   2.0000989e-02  -1.2525489e-01  -2.2840921e-01   3.4082477e-02   1.9597012e-01   2.7769991e-01   1.1849446e-01   3.2619915e-01  -4.6042398e-02   7.6293963e-02  -6.5078789e-01  -4.5965450e-02   2.1929636e-01  -3.9672751e-01   6.6279728e-02   1.9753107e-01   1.5469300e-01   2.8525731e-03  -1.0352257e-01  -4.0260304e-02  -3.2184609e-01  -5.5737300e-01  -3.1960361e-01  -1.6539977e-01  -4.7559923e-01  -3.9633727e-02  -3.4497447e-01   3.8017819e-02   1.8597787e-01   1.7281976e-01   1.6406967e-01   4.1278766e-01   1.7508423e-01   1.3052033e-01   6.9686876e-01   3.2815583e-01   2.2202252e-01  -3.3735662e-01   3.3904947e-01   2.4401866e-01   4.2925454e-01   2.9574972e-01   1.3156463e-01   2.1506422e-01   1.7956920e-01   2.9553537e-02   9.3860098e-02   1.8280102e-01   2.2515541e-01  -3.9459495e-01   1.1315207e-01   4.1084747e-02  -1.7227013e-01  -3.0366987e-02   8.5945444e-02   9.5926702e-02  -3.7381898e-01  -1.0354456e-01   3.6771811e-01   4.0848956e-01  -7.6086753e-01  -8.0373858e-01   2.5057574e-02  -4.8153522e-01   3.9644720e-02   1.6980780e-01   2.7270929e-01   1.9597012e-01   7.4474692e-03   1.6046411e-01   2.8464722e-01   1.9547546e-01   1.4680583e-02  -1.7945378e-02   1.5046086e-01   1.3519218e-01   1.7732672e-01   1.5554493e-03   3.0754475e-01   4.4418245e-01  -4.9566068e-01   1.5334092e-01   3.5616491e-01  -7.3211096e-01  -8.9906618e-01  -1.5628693e-01  -8.0703635e-01  -1.0129108e-01  -4.4796390e-01   2.2661192e-02   2.5882017e-02   2.4310628e-01   8.7759219e-02  -2.3888513e-01   1.2372692e-01  -2.4024272e-02  -3.5563727e-01   9.8839734e-02   7.3974530e-02  -6.5617425e-01  -1.6494358e-02  -4.4676571e-01  -1.8845120e-01  -5.9526440e-01   1.4266713e-01   3.6921310e-01  -1.6591642e-01   3.7863923e-02  -1.0453389e-01   3.1103490e-02   1.0125810e-01  -2.0853463e-01  -2.9623339e-01   4.5801111e-01  -3.2542967e-01   8.9001380e-02   9.2321137e-02   1.1055782e-01   2.2305583e-01   7.7107414e-02   1.8606581e-01  -1.5185692e-01  -2.8355346e-02  -7.2963213e-02  -2.7780984e-01  -1.4932863e-01   3.8562501e-01   2.3487284e-01  -6.6137374e-01   8.9974222e-03   2.1386054e-02   6.2014609e-02  -1.7120935e-02   1.8080037e-01   7.8327590e-02  -5.2582431e-01   7.4930884e-02   5.9893042e-02   1.5202181e-01  -6.0857641e-01   4.2753970e-01   1.3980906e-01  -3.3765342e-01  -2.0759477e-02   1.2262217e-02  -4.6421093e-01   3.2015873e-02   3.2475912e-01   1.8687926e-01  -6.9994669e-01  -1.4221643e-01   4.9175282e-02  -7.4733018e-02   4.2876537e-02  -1.2242980e-01   2.1905453e-01   3.1407434e-01   2.9197927e-01  -3.2125799e-02  -1.4257919e-01  -4.8884529e-01  -3.6281542e-01  -1.9934484e-01   4.3501465e-01   1.6505900e-01   5.2280135e-01   3.6673977e-01  -1.6733447e-01  -1.8692323e-01  -3.0511540e-01   3.9280316e-01  -1.8209200e-02   4.0333405e-01  -5.5356956e-01  -2.3634035e-04   3.4720047e-02  -6.6524313e-01   5.2604965e-02   2.7726021e-01  -5.5636168e-01  -5.8470053e-01  -2.2352851e-01  -1.9001215e-01   4.1667354e-02  -1.5251648e-01  -2.5222462e-02   7.7404213e-02  -6.9096575e-01  -6.4107046e-01  -2.0644605e-01  -3.4500745e-01  -6.3638762e-01  -6.1022529e-01  -3.3362464e-03  -8.2425072e-01   3.0349949e-01  -3.7858976e-01  -4.9976091e-01  -4.8997752e-01  -1.3484041e-01  -6.5367344e-02  -3.1099642e-01  -5.4750166e-01   1.0000000e+00   9.6619234e-02  -6.0816418e-02  -2.1207424e-01   2.3521361e-01   2.8286642e-01   2.5036138e-01   3.0921562e-01  -2.6511342e-01  -8.7396464e-02   2.5339533e-01  -3.1025992e-01   2.2541923e-01  -4.1057266e-03  -8.1405511e-02  -1.3170753e-01  -5.2297173e-02   9.0853628e-03  -2.7868924e-01   2.6376683e-02   3.1128223e-01   2.4504097e-01   4.2007574e-01   3.2286840e-01   1.2452938e-01   1.6919221e-01   2.4862455e-01  -6.1201159e-02  -2.9260584e-01  -5.0021161e-01  -9.6894048e-02  -1.6901633e-01   1.0928268e-01   9.4277815e-02   8.9880786e-02   9.6465338e-02  -1.7734870e-01   4.8054039e-02  -6.0572933e-01  -2.5728670e-01  -4.1267774e-01  -5.1682139e-01  -1.0000000e+00  -1.6698270e-01  -9.9037600e-02  -5.9408819e-01  -8.6110882e-01  -2.2493556e-01  -3.7723768e-01  -4.3623482e-01   1.0760082e-01  -3.0158128e-02  -5.5210205e-02  -1.4614078e-01   2.3405939e-01   1.3930340e-01  -1.3559341e-02   1.5522065e-01  -2.6534426e-01   1.6971985e-01   5.2780846e-02   1.3969913e-01   1.2084687e-01  -3.0323017e-02   1.9749809e-01  -3.8134890e-01  -4.1382096e-01  -6.6313255e-01  -4.4710648e-01  -9.8464337e-01  -3.5539543e-01  -1.0994223e-01   5.1417218e-01  -3.8975822e-01   2.5049329e-01   9.7449173e-03  -1.5977707e-02  -5.1373797e-02  -2.6457478e-01  -5.8721783e-01   2.2806844e-01  -8.8715023e-01  -2.9963010e-01  -8.2128272e-01   9.0573318e-02  -2.9255088e-01  -4.7182878e-01  -7.4491181e-02  -2.5024596e-02   1.4150192e-01  -9.2903743e-02   2.7627088e-01   5.5316284e-01  -2.3768694e-01   1.6128855e-01  -4.9624329e-01   4.5019539e-01  -4.7098235e-01   1.5766100e-01  -4.1675598e-01  -9.0936073e-02  -8.6363162e-02   2.8190457e-02   1.5175799e-01   7.4787981e-02   4.2359886e-02   3.2535272e-01   4.0077278e-01  -1.4835029e-01   2.0045509e-01  -1.5516019e-02  -4.1172688e-02   4.9790866e-02  -1.6580650e-01  -9.5860746e-02   1.7132477e-01   1.8934160e-01   1.8934160e-01   2.7320395e-01   2.7805717e-02  -5.9013087e-01   2.3298762e-02  -4.9392385e-01   7.8514464e-02  -3.7698485e-01
   1.7670787e-01  -6.4109065e-01  -5.0232902e-01  -5.8288914e-01  -4.9721958e-01  -4.7910604e-01  -6.4404875e-01  -1.3339288e-01   2.6931167e-01  -6.1458303e-01  -6.7900808e-01  -4.4514555e-01  -5.2925923e-01   3.1370233e-01  -5.8825789e-02  -2.4001882e-01  -7.4746689e-01  -8.6524332e-02  -5.4643156e-01  -4.5886036e-01  -2.9186235e-01  -5.7703057e-01  -6.2339970e-01  -5.7681928e-01  -6.4844748e-01  -3.0621104e-01  -6.7069083e-01  -1.1873685e-01  -4.0636375e-01  -6.3467504e-01   3.9847869e-02  -2.4566610e-01   1.4111467e-01  -6.0845555e-01   5.0605546e-01   3.6024433e-01  -3.2524659e-01  -3.9070889e-01  -2.7503578e-01  -5.0949376e-01  -2.0621200e-01  -2.6333785e-01  -6.3142882e-01  -6.2564708e-01  -4.5394301e-01  -5.8258180e-01  -5.2386166e-01  -4.9149547e-01  -5.9153293e-01  -2.2651530e-01   3.5247453e-03  -6.2331326e-03  -4.4652856e-01  -5.6227850e-01  -6.5753306e-01  -7.0753258e-01  -2.7294206e-01  -4.1990569e-01  -6.1433332e-01   1.3320080e-01  -2.7079072e-01  -3.1389441e-01  -3.4489680e-01  -3.7724378e-01  -3.6078217e-01  -2.2835931e-01  -6.2952719e-01   1.3245167e-01  -5.5083028e-01  -4.3396625e-01  -6.6944228e-01  -1.9395703e-01  -4.6836853e-01  -3.1130127e-01  -4.6494943e-01  -4.5284813e-01  -5.8265864e-01  -6.4892769e-01  -6.4153245e-01  -7.0714841e-01  -8.4642867e-01  -8.9758070e-01  -6.9639170e-01  -8.1434101e-02  -4.2939465e-01  -4.1761989e-01  -6.6047195e-01  -2.2401821e-01  -5.2829881e-01  -2.3951940e-01  -5.6026162e-01  -7.1321828e-01  -4.3751981e-01  -6.6225833e-01  -6.0298115e-01  -6.3358016e-01  -6.0553587e-01  -5.5649677e-01  -2.7870458e-01  -1.7605478e-01   1.6635453e-01  -3.6178100e-01  -7.1218102e-01  -2.8483207e-01  -6.8121705e-01  -4.6131904e-01  -5.1542916e-01  -4.4057395e-01  -2.4935412e-01  -2.0644250e-01  -3.0267669e-01  -7.1757859e-01  -3.3780889e-01  -6.2193986e-01  -6.3751789e-01  -6.1508245e-01  -4.6032020e-01  -7.3311820e-01  -2.6800549e-01  -4.6263482e-02   1.1172578e-01  -1.8861709e-01  -8.6697208e-02  -2.4643444e-01  -3.1689092e-01  -5.3089194e-01  -4.2593713e-01  -4.8984355e-01  -5.9185947e-01  -6.5868557e-01  -6.4143641e-01  -4.6277888e-01  -4.7693549e-01  -6.2799051e-01  -4.5457689e-01  -4.0236840e-01  -3.9101622e-01  -5.6129887e-01  -7.0949184e-01  -1.7767789e-03  -6.9352004e-02   1.0308199e-01  -2.5066029e-01   3.2817587e-02  -1.3779161e-01  -2.5179359e-01  -6.1066451e-01  -6.6410234e-01  -6.7512798e-01  -6.1281586e-01   2.4476330e-01   1.4399593e-01   3.7040559e-01  -3.1848522e-01  -2.9656842e-01  -6.2614650e-01  -2.4968066e-01  -6.4197424e-01  -3.2805102e-01  -3.0446308e-01  -2.3928890e-01  -6.5659185e-01  -5.9122559e-01  -5.8358064e-01  -3.8907617e-01  -4.0144639e-01  -1.3592839e-01  -4.6074279e-01  -6.7822053e-01  -3.7263376e-01  -3.9672112e-01  -7.0384457e-01  -7.1536962e-01  -6.7993008e-01  -7.0309544e-01  -3.7351735e-01  -3.1648755e-01  -5.6537106e-01  -5.5908990e-01  -5.5670806e-01  -1.0000000e+00  -7.1016414e-01  -5.7327532e-02  -5.8626982e-01  -4.4879515e-01  -6.0722621e-01  -5.5887861e-01  -5.7658878e-01  -4.9939013e-01  -4.6493022e-01  -2.9555037e-01  -6.7101737e-01  -5.2403454e-01  -6.1556266e-01  -5.1395012e-01  -5.6489085e-01  -1.7444128e-01  -3.6218438e-01  -5.1929006e-01  -4.0175373e-01  -4.0939868e-01  -3.8972926e-01  -4.8819162e-01  -6.1404520e-01  -6.0353819e-01  -5.2399612e-01  -4.1368216e-01  -4.0576829e-01  -6.8732532e-01  -3.5317563e-01  -6.9844700e-01  -3.7367102e-01  -1.5715370e-01  -3.4795094e-01  -6.8648015e-01  -3.2207720e-01  -5.4962015e-01  -3.0405970e-01  -7.6796228e-01  -4.9604787e-01  -4.4082366e-01  -4.7334351e-01  -2.0876672e-01  -1.2317400e-01  -5.0463403e-01  -1.5882483e-01   1.2975288e-02   3.1846602e-01  -3.4929553e-01  -3.6414364e-01  -5.0079235e-01  -1.4136437e-01  -5.8252418e-01  -5.3755727e-01  -6.4539334e-01  -6.2026873e-01  -6.8058317e-01  -6.0741829e-01  -6.2514766e-01  -6.5686077e-01   8.3489402e-02  -3.5767040e-01   3.6589161e-01  -3.6966606e-02   6.6941347e-03  -6.5148241e-01  -6.8530844e-01  -6.2551263e-01  -5.9097588e-01  -5.8617378e-01  -6.4994574e-01  -5.1381566e-01  -5.2182557e-01   2.5422345e-02  -6.0362463e-02  -3.3544626e-01  -6.5056041e-01  -7.1590745e-01  -2.9745200e-01   2.6097521e-01  -1.8550533e-01  -3.9816175e-01  -6.5113666e-01  -5.9112955e-01  -6.1515929e-01  -1.8873234e-01  -5.4998511e-01  -4.8702951e-02  -6.2564708e-01  -6.1348815e-01  -2.0052631e-01  -5.2140298e-01  -4.8876788e-01  -2.3579297e-01   2.0492504e-01  -6.1696488e-01  -6.1385311e-01  -3.0129369e-01  -4.3517638e-01  -1.2930149e-01  -3.5759357e-01   5.7721305e-03  -4.3404308e-01  -5.3946850e-02  -4.1137715e-01  -2.1529759e-01  -2.4614631e-01  -3.9098741e-02  -7.4192526e-02  -1.1648947e-01  -4.5088887e-01  -5.4015040e-01  -5.0772659e-01  -3.9385907e-01  -4.8423469e-01  -4.6458447e-01  -2.8915397e-01  -6.6976883e-01  -5.1128014e-01  -5.8325410e-01  -2.0392620e-01  -3.6083979e-01   2.1026498e-01  -1.6913015e-02  -9.4226909e-02  -3.0935162e-02  -5.3106482e-01  -3.1621863e-01  -2.4560847e-01  -9.4591869e-02   4.6372009e-01  -3.6950279e-01  -3.0304165e-01  -5.3721151e-01  -6.5522805e-01  -4.2432362e-01  -2.2130982e-01  -2.0507871e-01  -5.1362357e-01  -6.4208949e-01  -1.8631208e-01  -5.5273192e-01   3.5282988e-01  -7.2599187e-01   6.9928256e-02   2.7032971e-01  -6.7495510e-01  -6.4648822e-01  -5.6692694e-01  -5.7714582e-01  -6.9835096e-01  -4.7753095e-01  -3.6758195e-01  -5.3588613e-01  -5.2009681e-01  -6.1519770e-01  -7.1387136e-01  -5.9468311e-01  -6.4929265e-01  -3.4483918e-01  -2.2219341e-01  -6.0399919e-01  -5.3632793e-01  -3.6546902e-01  -4.6809962e-01  -4.9725800e-01  -6.4212791e-01  -5.5599735e-01  -1.0506046e-01  -4.9889071e-01  -3.7893413e-01  -2.2396058e-01  -4.3734693e-01  -4.1567983e-01  -6.7453251e-01  -6.6149000e-01  -5.5565160e-01  -6.4693001e-01  -1.8729171e-01  -4.2236437e-01  -4.9310898e-01  -5.9646949e-01  -4.8402340e-01  -2.9393686e-01  -3.5219600e-01  -2.5532794e-01  -2.9756725e-01  -7.2877710e-01  -3.0165865e-01   8.8944593e-02  -1.3644702e-01  -2.0183248e-01  -3.9881484e-01  -6.0296194e-01  -1.3863678e-01   1.0000000e+00   3.6039800e-01   4.4944824e-01   5.1640879e-01  -3.3644510e-01  -3.8444694e-01  -4.2950990e-01  -4.6735049e-01  -6.8112100e-01  -6.8542369e-01  -6.1464066e-01  -6.6813611e-01  -4.0930264e-01  -5.4416496e-01  -6.3435810e-02  -3.6379789e-01  -5.5444147e-01  -6.3761393e-01   4.4647093e-01  -3.3584964e-01  -3.4649110e-01  -3.1802422e-01  -3.3477397e-01  -1.3942432e-01  -4.9199489e-01  -2.1358804e-01  -3.2225007e-01  -1.9570500e-01  -5.4232095e-01  -4.9157230e-01  -2.9478203e-01  -3.9864196e-01   1.0740389e-01  -1.6336762e-02  -1.4320838e-01  -4.4287896e-01  -6.3240845e-01  -4.4775790e-01  -5.0288606e-01  -2.5915041e-01  -2.3227783e-01  -1.1777643e-01  -6.9354885e-01  -5.8137167e-01   6.1457343e-02   1.2029274e-01  -2.1815964e-01  -5.7770287e-01  -2.5699907e-01  -6.2977689e-01  -4.0761230e-01  -4.0173452e-01  -6.9412510e-01   3.4560751e-01   4.5724686e-01  -6.3098703e-01  -4.0025547e-01  -6.2854756e-01   2.5096762e-01  -2.3932732e-01  -4.8114213e-01  -2.8863534e-01   4.3848023e-01  -2.2586222e-01  -2.2586222e-01  -5.3970861e-01   3.3454346e-01  -1.9989243e-01  -3.2117440e-01  -1.4718453e-01  -5.2092277e-01  -3.8254531e-01
   3.2521406e-01   2.5356631e-01   6.5161907e-01   6.2389708e-02  -9.5405746e-02   6.3096449e-01   4.1339592e-01   6.0565045e-01   3.4682488e-01   3.8448298e-01   3.1104446e-01   5.1858130e-01   5.1819881e-01   5.9095927e-01   3.6038597e-01   3.5756943e-01   2.0804972e-01   4.7316904e-01   5.3711479e-01   4.5148868e-01   5.1844221e-01   4.5362716e-01   3.6627983e-01   4.6920502e-01   3.5094536e-01   4.5959056e-01   4.4329987e-01   1.9831356e-01   3.2462294e-01   3.1271352e-01   2.3543269e-01   3.6123788e-01   4.5242752e-01   1.2896075e-01   4.3260747e-01   5.4198287e-01   4.3768418e-01   4.6896162e-01   5.0411614e-01   4.9062459e-01   5.1021863e-01   8.1614291e-01   5.2150215e-01   6.1954188e-01   5.7402530e-01   6.0879732e-01   3.9392359e-01   2.0307732e-01   3.2597905e-01   2.1498674e-01   3.8806450e-01   3.0080410e-01   2.4435172e-01   2.8950319e-01   3.9618377e-01   1.1835528e-01   3.6361977e-01   6.0685009e-01   2.5125397e-01   5.0823662e-01   4.3610206e-01   3.4654670e-01   4.0341635e-01   3.3048203e-01   5.8816013e-01   1.2271917e-01   2.1830747e-01   3.9729647e-01   8.3365063e-01   6.7194332e-01   4.1117051e-01   5.0508975e-01   3.8175338e-01   3.8705611e-01   2.3564133e-01   3.3282914e-01   3.5927327e-01   4.8300952e-01   4.9411918e-01   1.4931977e-01  -1.1083583e-02  -4.0935368e-02   2.2434042e-01   5.3833181e-01   5.8666493e-01   6.3461555e-01   4.3473725e-02   8.9077237e-02  -4.5473117e-02  -2.5705220e-02   3.7954536e-01   2.5954709e-01   3.3392446e-01   3.6581041e-01   3.9868736e-01   3.7050463e-01   4.2137610e-01   6.3758856e-01   3.4200895e-01   4.0416395e-01   2.4934150e-01   6.4562959e-02   2.0080845e-03   3.9486243e-01   4.5181901e-01   1.9593167e-01   2.9748337e-01   5.3262051e-02   1.4998044e-01   6.9009432e-01   3.7229539e-01   2.1877689e-01   1.1889425e-01   1.8209241e-01   3.8691703e-01   4.1782936e-01  -8.0888425e-02  -7.0854088e-01   2.9795280e-01   4.1770765e-01   5.2610945e-01   3.4338245e-01   4.3184248e-01   4.4700309e-01   5.2744817e-01   3.9409745e-01   4.9552745e-01   8.1149215e-02   3.2909115e-01   1.7463381e-01   3.8185769e-01   3.8333551e-01   3.4522537e-01   4.5053245e-01   5.9116791e-01   6.0952754e-01   2.9058113e-01   1.6427174e-01   7.4507758e-02   4.0409441e-01   2.7575086e-01   5.6651454e-01   2.6279828e-01   7.8158821e-02   2.4170905e-01   1.5264050e-01   4.0179945e-01   4.7974095e-01   5.3716695e-01   5.9308037e-01   3.9270657e-01   2.9562307e-01   3.3439388e-01   9.4785935e-01   7.2156300e-01   3.6958317e-01   8.6930065e-06   3.3721041e-01   3.9632286e-01   5.7336463e-01   6.7707220e-01   4.7822836e-01   6.1808145e-01   7.0229930e-01   2.9725736e-01   3.9668796e-01   3.7102621e-01   5.5757813e-01   4.3053853e-01   2.6900508e-01   3.0066501e-01   3.7860651e-01   2.2032425e-01   2.2613118e-01   4.0199070e-01   1.3127309e-01   5.5060634e-01   6.8131438e-01   5.8633459e-01  -3.8818620e-01  -7.2189334e-01   1.3867953e-01   3.4889381e-01   3.5252749e-01   4.0739775e-01   5.3389838e-01   2.8100143e-01   1.8558700e-01   4.7089147e-01   5.9231538e-01   4.6652758e-01   4.5520928e-01   3.9105490e-01   5.2167601e-01   4.0407702e-01   4.1720346e-01   3.0186465e-01   2.8743426e-01   6.1580389e-01  -2.6209415e-02   4.5517451e-01   4.1563872e-01   2.6288521e-01  -1.3050811e-01   4.0657191e-02   1.0500282e-01   3.1961577e-01   2.2540097e-01   1.0211675e-01   2.4819403e-01   3.5626548e-01   1.7783283e-01   3.2045030e-01   4.4401269e-01   2.5198418e-01   9.2763072e-02   4.7582909e-01   3.3750598e-01   1.3655844e-01   2.3332899e-01   1.9082019e-01   1.2991698e-01  -5.6940062e-01  -1.7529448e-01   3.2936932e-01   5.0474204e-01   5.4926761e-01   7.3102099e-01   4.6769244e-01  -1.1396531e-02   3.4239145e-01   2.0053897e-01   4.3067762e-01   7.0387273e-02   4.3417221e-01   2.9856131e-01   4.4813318e-01   8.1689051e-01   4.3443300e-01   4.7852393e-01   3.0767158e-01   1.2357109e-01   6.2650498e-02   1.5340549e-01   2.2381884e-01   3.1900726e-01   5.1755553e-01   3.6519320e-02   9.5475290e-02   1.4566871e-01   3.6563654e-01   2.5838223e-01   6.5010649e-01   3.4798974e-01   5.3134264e-01   4.9036380e-01   3.5796931e-01   5.7494676e-01   2.1093580e-01   2.5372278e-01   3.3774938e-01   2.8938149e-01   2.3357239e-01   2.9237189e-01   3.0207328e-01   3.8065806e-01   5.4055722e-01   5.2101534e-01  -8.3340722e-01   7.5829095e-02   3.2171948e-01   3.5257965e-01   4.6751858e-01   5.5636111e-01   6.5791281e-01   5.4020950e-01   3.2185856e-01   3.7996262e-01   1.1306993e-01   3.6593211e-01   4.2368844e-01   4.0289477e-01   7.8423958e-01   2.7324727e-01   5.9214152e-01   4.5035859e-01   1.1456513e-01   2.0911027e-01   4.1536054e-01   5.0738471e-01  -3.1094884e-02   5.0133438e-01   4.3902291e-01   4.1457817e-01   1.8929022e-01   1.5062372e-01   5.5218846e-01   4.2181075e-01  -1.0000000e+00   1.0405529e-02   3.6631460e-01   7.8454383e-02   1.1612987e-01   2.4230017e-01   1.6421959e-01   4.1311775e-01  -1.6084670e-01  -4.6214630e-01  -2.1536923e-01  -1.6943539e-01   2.9045942e-01  -1.8263137e-01   5.4638154e-01   3.0485504e-01   4.1821185e-01   8.6330247e-02   3.7137393e-01   3.9820055e-01   1.7023515e-01  -1.6161168e-01   1.0056939e-01   7.2769157e-02   6.8114052e-01   2.6942235e-01   6.4605555e-01   7.1827705e-01   6.6486721e-01   6.6385883e-01   7.7273004e-01   7.9112444e-01   1.7738080e-01   5.3295953e-01   6.1248316e-01   3.4388664e-01   4.2735689e-01   2.9990003e-01   2.5010649e-01   1.6216804e-01   3.4694658e-01   3.6621028e-01   2.5728691e-01   1.9264572e-01   5.3994871e-01   5.5399661e-01   5.4921546e-01   7.0007389e-01   2.7533359e-01   5.8169253e-01   5.7439040e-01   5.1430434e-01   5.0323815e-02   4.8932933e-02   5.8530013e-02   2.4861129e-01   3.8609988e-01   3.2618768e-01   3.7064372e-01   5.2202373e-01   2.9727474e-01   2.1006650e-01   1.2211066e-01   2.8786891e-01   1.3400270e-01  -3.5297953e-01  -4.8327031e-01   6.6266788e-02   1.6229843e-02   1.4474725e-01   1.9589690e-01   3.3380276e-01   3.3308993e-01   5.5018038e-02   3.3369844e-01   3.6422828e-01   3.5134524e-01   2.2275829e-01   1.7025253e-01   9.3458513e-02   1.4554701e-01   5.8690833e-01  -2.6142478e-01   5.4266093e-01   4.3109488e-01   1.8212718e-01   2.1489981e-01   3.9187204e-01   3.3486330e-01  -1.5392707e-01   2.2839136e-01  -1.1108793e-01  -7.2931716e-01  -1.6195071e-02   2.1778589e-01   5.7017430e-02   1.0000000e+00   1.5928196e-01   1.9094189e-01   3.4746816e-01   1.2706568e-01   1.5587430e-01   2.3225105e-01  -2.9911766e-01   9.2073717e-01   5.3453297e-02  -2.0889295e-02   2.7978441e-01   4.8022776e-01   2.8817316e-02   1.3269874e-01   4.3907506e-01   3.9541879e-01   4.1692528e-01   3.7735472e-01   3.7994523e-01   3.4413005e-01   5.2817838e-01   3.6501934e-02   1.2021559e-01   7.6916591e-01   5.2049376e-01   8.8566958e-01  -1.0794106e-01   2.0304255e-01   3.1883340e-01   3.2837832e-01   3.2013735e-01   4.4875907e-01   3.0236884e-01   5.9045508e-01   6.2541835e-01   3.9573173e-01   5.9488851e-01   4.6741426e-01   4.6776198e-01   5.3720172e-01   5.2602251e-01   1.7350372e-01   1.2285826e-01   1.2713522e-01   1.2713522e-01   1.8219672e-01   9.2537054e-02  -2.3792759e-02  -4.3056461e-02  -2.5234928e-01   3.5612640e-01   1.5742165e-01
   3.5328558e-01  -1.9013001e-01  -2.5847705e-01  -1.7750066e-01  -4.8341735e-02  -4.8753869e-01  -3.3998408e-01  -2.1588397e-01   1.7109755e-01  -6.2830105e-01  -2.3297073e-01  -4.5193243e-02  -3.0370567e-02  -5.9131511e-02   9.0651809e-02  -7.6147519e-02  -5.7364465e-01  -2.2906164e-02  -2.9031573e-01  -3.9810737e-01  -1.1177147e-01  -2.9703723e-01  -4.2513487e-01  -1.7092067e-01  -4.3833024e-01  -2.8141859e-02  -1.3338640e-01   2.1384983e-02  -4.0373220e-01  -3.7107986e-01  -8.9413638e-02   7.9225259e-02   4.1568940e-01  -5.2754931e-01   3.3860440e-01   1.9101442e-01   8.4637835e-02  -8.0038914e-02  -2.6266914e-02  -2.6001592e-03   4.5865393e-02   1.3048554e-01  -3.2742549e-01  -7.3211285e-02  -1.4254886e-01  -1.8089679e-01   5.5947643e-02  -4.9563987e-01  -3.4249580e-01  -3.0121164e-01   2.9756788e-01   1.9508269e-01  -2.2200407e-01  -4.5117184e-01  -5.0112320e-01  -4.8506235e-01   1.8873264e-02  -1.3211285e-01  -3.6775449e-01  -9.4684709e-02  -2.2189794e-01  -2.6894844e-01  -2.7906606e-01  -1.2399399e-02  -3.1302733e-01  -2.0288317e-02  -5.4067392e-01  -1.4131069e-01  -3.6828513e-01  -3.5201203e-01  -5.0720792e-01   3.7288405e-01   1.0282126e-01   1.3434156e-01   3.4384010e-01   1.6543734e-01  -4.6931989e-01  -5.1615813e-01  -4.6539312e-01  -3.1377023e-01  -2.5384275e-01   6.5269302e-03  -7.4497214e-01   5.8140975e-02  -1.5316176e-01  -1.1378792e-01  -4.7720881e-01  -3.9683382e-01  -3.4330945e-01  -4.2014681e-01  -1.8482356e-01  -7.1260281e-01  -4.4455647e-01  -7.0138852e-01  -5.2645264e-01  -4.5955603e-01  -3.8102061e-01  -3.2387017e-02   2.7736800e-01   4.6166092e-03   3.4299107e-01  -6.3376669e-02  -6.2582471e-01  -2.4436190e-01  -5.7686389e-01  -6.6265146e-01  -5.4053241e-01  -7.5862740e-01   1.0788007e-01  -1.4679402e-01  -2.6399575e-01  -5.1283276e-01  -3.6492438e-01  -6.4545856e-01  -5.4297338e-01  -4.3769346e-01  -4.7299903e-01  -2.4337136e-01  -3.4567967e-01   1.5100380e-01   1.3830371e-01  -1.0703104e-01   1.6377465e-01  -8.0604935e-02  -2.1804192e-01  -3.6669320e-01  -2.3304148e-01  -4.4123110e-01  -5.8064916e-01  -4.5251614e-01  -6.0389139e-01  -4.0196339e-01  -3.5448837e-01  -5.6908110e-01  -2.4276997e-01  -5.5174671e-01  -4.1993455e-01  -3.1748474e-01  -5.7360927e-01  -1.5878659e-01  -1.5783143e-01  -1.7944636e-01   1.1976652e-01   1.7435217e-01   3.9223490e-01   3.5321482e-01  -4.1749359e-01  -5.0929513e-01  -6.1404440e-01  -7.0344035e-01   5.6232422e-01   4.1201026e-01   4.7738569e-01  -2.7319360e-01  -9.1677722e-02  -7.0163615e-01  -4.2386133e-01  -5.1159459e-01  -1.8952861e-01  -5.6902804e-02   2.5048200e-01  -5.8535421e-01  -3.2908817e-01  -6.2501105e-01  -3.0750862e-01  -2.0045989e-01  -1.7569647e-01   1.5194127e-02  -5.9628549e-01  -2.6509242e-01  -5.0038030e-01  -4.7062881e-01  -7.0283895e-01  -5.2560361e-01  -4.4915539e-01  -3.7553728e-01  -4.8000354e-01  -4.7827010e-01  -3.8607942e-01  -5.5178208e-01  -1.0000000e+00  -6.3626072e-01  -4.3833024e-01  -5.6865658e-01  -5.8146281e-01  -4.9231450e-01  -5.8581410e-01  -3.5215353e-01  -3.6513664e-01  -3.0842841e-01  -2.0665075e-01  -5.2542673e-01  -6.0587247e-01  -4.2524100e-01  -3.9655081e-01  -1.7969399e-01  -1.2871672e-01   1.3703016e-01   1.7316707e-02  -1.3550898e-01  -3.4670558e-01  -3.8491200e-01  -2.7754488e-01  -1.7410454e-01  -2.8318741e-02  -3.4911117e-01  -6.7338817e-02  -7.4500752e-01  -4.1285929e-01  -6.3916158e-01  -4.3479261e-01  -4.4338905e-01  -1.1495534e-01  -3.0244981e-01  -5.8075528e-01  -2.9990271e-01  -5.3727779e-01  -2.6024587e-01  -6.8133015e-01  -4.8732644e-01  -8.4390201e-02  -2.0976386e-01  -3.1755550e-01  -2.5398426e-01  -1.9115592e-01   7.6536659e-02   1.6338551e-01   5.3862209e-01   1.2655877e-01  -3.1147077e-01  -4.6663129e-01   5.8530114e-02  -1.6837357e-01  -1.0565137e-01  -4.3029981e-01  -5.1113469e-01  -4.0836650e-01  -3.4001946e-01  -4.9687804e-01  -6.0919784e-01  -1.1251437e-01  -3.0358185e-01   2.0491731e-01   3.4214204e-01   1.5747767e-01  -4.5492173e-01  -4.8003891e-01  -4.0719908e-01  -4.2969842e-01  -4.8407181e-01  -3.1115238e-01  -4.4929690e-01  -4.3072433e-01   1.2365791e-01  -3.9403909e-01  -5.1385867e-01  -6.1078978e-01  -6.8175467e-01  -4.5665517e-01   6.1022376e-01  -2.8065800e-01  -3.7728840e-02  -2.7566994e-01  -2.3028213e-01   1.7304325e-01  -1.9465818e-01  -1.9964624e-01  -3.3817989e-01   1.2606350e-01  -4.9892987e-01   4.0735827e-02  -5.6384541e-01   5.7433448e-02   1.9380914e-01   2.4835942e-01  -1.8588485e-01  -5.8630937e-01   1.1378792e-01  -2.8879455e-01  -1.3519059e-01  -3.8967012e-02   2.4321217e-02  -1.0480233e-01   4.7581144e-03  -2.8387724e-01  -1.5181746e-01  -9.2066861e-02  -1.0487309e-01   1.2036791e-01   9.8611480e-02  -3.7730609e-01  -3.0375873e-01  -3.1808614e-01  -4.6748032e-01  -4.0649155e-01  -3.3520828e-01  -4.0935703e-01  -3.5183515e-01  -8.7246838e-01  -3.5512514e-01  -3.1957195e-01  -5.0816308e-01   6.8012735e-01   2.6222694e-01   3.6538427e-01   1.8811356e-01   1.0589900e-01  -2.5094189e-01  -1.7781905e-01  -2.1093128e-01   1.0000000e+00   2.2552401e-02   2.9946051e-02  -3.9885027e-01  -4.2686831e-01   1.1350491e-01  -1.8061378e-01  -3.8986469e-01  -2.6187318e-01  -1.4743080e-01   1.3335102e-01  -4.5511630e-02  -2.6318210e-01  -5.0091094e-01  -6.6136022e-02   2.4358362e-01  -5.4336252e-01  -5.0947201e-01  -4.4045282e-01  -2.7340585e-01  -8.0923322e-02   5.0038030e-01   3.2385248e-01  -3.4964182e-01  -2.5702662e-01  -5.7566109e-01  -7.3711860e-01  -6.3947997e-01  -4.2000531e-01  -3.5252498e-02  -2.4280534e-01  -6.2455116e-01  -2.5833554e-01  -5.5381622e-02  -2.6509242e-01  -4.3238702e-01  -2.3070664e-01   4.6855930e-02   3.2077474e-01  -2.0909171e-01  -3.4797913e-01  -1.2404705e-01  -2.6459715e-01   1.0971964e-01  -5.5475369e-01  -4.6256301e-01  -4.9712567e-01  -6.0466967e-01  -5.2917662e-01  -3.8013620e-01  -1.2740780e-01  -2.7315822e-01  -6.0463430e-01  -2.5409039e-01  -3.5250730e-01  -3.2590431e-01  -4.4420271e-01  -4.6369506e-01   2.8743256e-02  -5.4850977e-02  -1.2783232e-01  -2.6325285e-01  -4.1091359e-01  -4.0896790e-01  -2.7611214e-02   6.5203856e-01   6.5352436e-01   4.7621827e-01   5.7343239e-01  -3.4698859e-01  -9.5958256e-02  -1.0614664e-01  -3.2678872e-01  -3.0736712e-01  -5.3894048e-01  -2.3891395e-01  -6.6360661e-01   1.1231980e-02  -3.3814451e-01  -2.2257009e-01  -3.5731848e-01  -1.3664102e-01  -1.4127532e-01   1.7866808e-01   8.7556381e-03  -2.1729902e-01   2.4321217e-02  -2.0155656e-01  -7.7845582e-02  -1.5655788e-01  -1.5411692e-01  -2.2525869e-01   2.5218007e-01  -2.5002211e-01  -4.4031131e-01  -1.1090475e-02  -1.7622712e-01   4.4434421e-01   4.4130185e-01   7.3883435e-02  -5.0957814e-01  -4.1540638e-01  -2.7574069e-01  -1.6388078e-01  -2.8831697e-03   3.0941894e-01   2.6509242e-01   1.4962413e-01  -1.8666313e-01   3.1891748e-02   6.1077209e-02  -4.5311754e-01  -4.7713806e-01  -1.2411780e-01  -3.9913328e-01  -3.2678872e-01   7.1159459e-02  -4.0252941e-01   3.0011497e-01   5.6692314e-01  -3.4132838e-01  -5.2171221e-01  -6.0757053e-01   6.1291235e-01  -1.9333157e-02  -3.5073848e-01  -5.6425223e-03   3.6361546e-01  -6.0971080e-02  -6.0971080e-02  -2.9958433e-01   3.7843814e-01  -2.0601397e-01  -1.4488370e-01  -1.9214646e-01  -2.7570532e-01  -2.7658972e-01
